1705
1755
2165
2933
3571
4095
4095
4061
3733
3350
2987
2699
2405
2160
1942
1799
1667
1635
1904
2715
3789
4095
4095
4095
4095
3963
3649
3217
2885
2586
2297
2062
1872
1710
1793
2335
3163
3866
4095
4095
4095
3807
3413
3041
2704
2405
2128
1956
1789
1667
1597
2078
2899
3676
4095
4095
4095
3926
3537
3167
2827
2517
2250
2023
1840
1718
1615
1858
2538
3178
3728
3986
3979
3751
3435
3067
2794
2508
2240
2032
1863
1728
1634
1727
2259
2917
3351
3654
3696
3521
3290
2988
2754
2496
2249
2064
1905
1775
1681
1679
2064
2589
2815
2960
2963
2880
2766
2608
2430
2274
2129
1978
1895
1786
1731
1684
2033
2790
3507
4077
4095
4095
3881
3504
3150
2816
2494
2265
2015
1827
1697
1614
1779
2384
3095
3647
4010
4066
3923
3538
3203
2865
2591
2318
2091
1887
1755
1648
1661
2138
2806
3266
3583
3629
3495
3306
3027
2782
2518
2305
2105
1921
1791
1680
1689
2113
2745
3271
3568
3702
3537
3369
3098
2841
2559
2359
2112
1927
1801
1693
1658
1872
2582
3349
4000
4095
4095
4034
3626
3259
2924
2603
2325
2096
1872
1741
1627
1664
2198
3005
3706
4095
4095
4095
3846
3446
3068
2753
2451
2185
1966
1799
1673
1616
2065
2826
3468
3982
4095
4062
3729
3403
3039
2714
2427
2189
1973
1814
1676
1612
1904
2690
3411
4005
4095
4095
3925
3575
3187
2854
2559
2303
2038
1846
1707
1612
1714
2362
3113
3696
4081
4095
3929
3601
3264
2906
2602
2337
2080
1893
1753
1648
1735
2288
3134
3806
4095
4095
4061
3725
3333
2979
2688
2382
2163
1931
1776
1644
1612
1968
2683
3276
3655
3833
3764
3538
3248
2960
2661
2403
2176
1968
1825
1706
1618
1785
2421
3041
3449
3702
3695
3528
3271
2992
2738
2463
2251
2022
1874
1744
1658
1797
2391
3297
4095
4095
4095
4095
4011
3583
3211
2874
2559
2292
2063
1861
1717
1633
2008
2700
3283
3716
3889
3856
3600
3253
2969
2676
2409
2166
1965
1826
1704
1617
1843
2445
3049
3455
3664
3643
3485
3245
2953
2689
2451
2223
2030
1845
1754
1650
1775
2416
3153
3717
4033
4095
3888
3568
3142
2908
2586
2303
2074
1890
1743
1637
1690
2192
3056
3858
4095
4095
4095
4010
3599
3230
2890
2559
2298
2036
1865
1715
1605
1906
2691
3538
4095
4095
4095
4095
3815
3385
3026
2747
2433
2160
1950
1797
1679
1808
2466
3143
3663
3937
3966
3730
3425
3105
2800
2537
2286
2047
1861
1741
1633
1664
2147
2882
3427
3778
3920
3799
3521
3201
2896
2621
2375
2126
1941
1790
1680
1638
1963
2591
3039
3362
3515
3435
3263
3039
2797
2559
2320
2143
1941
1815
1730
1666
1903
2769
4095
4095
4095
4095
4095
4095
4037
3659
3257
2915
2618
2334
2090
1867
1826
2306
2999
3513
3831
3888
3775
3473
3175
2871
2559
2290
2095
1902
1755
1662
1616
2006
2768
3358
3840
4095
3952
3681
3378
3015
2711
2409
2179
1974
1797
1686
1651
1887
2605
3216
3713
4006
3967
3697
3398
3045
2736
2483
2209
1994
1831
1717
1608
1719
2319
3047
3677
4011
4095
3981
3606
3266
2919
2611
2381
2102
1914
1754
1647
1664
2128
2881
3377
3731
3798
3703
3456
3183
2864
2602
2349
2128
1919
1797
1685
1644
2093
2967
3991
4095
4095
4095
4095
3867
3460
3089
2747
2494
2213
1970
1813
1685
1873
2525
3333
3997
4095
4095
4048
3696
3280
2971
2663
2343
2130
1915
1744
1648
1712
2337
3456
4095
4095
4095
4095
4095
3931
3600
3200
2874
2544
2292
2043
1870
1723
2071
2723
3329
3815
3987
3882
3650
3311
3008
2693
2441
2160
1984
1811
1705
1633
1890
2517
3071
3422
3583
3529
3370
3136
2878
2598
2371
2149
1987
1824
1730
1648
1749
2390
3407
4095
4095
4095
4095
4095
3768
3408
3040
2711
2420
2178
1966
1782
1721
2151
2919
3567
4075
4095
4095
3817
3419
3047
2736
2450
2194
1983
1814
1665
1618
1920
2690
3494
4095
4095
4095
4093
3707
3290
2977
2653
2330
2119
1893
1753
1664
1785
2435
3232
3916
4095
4095
4095
3728
3347
3004
2693
2386
2133
1937
1767
1655
1711
2192
2943
3599
3971
4095
3990
3635
3271
2951
2655
2352
2128
1921
1779
1665
1590
1919
2666
3258
3734
3965
3867
3643
3334
3008
2710
2448
2206
1981
1840
1697
1594
1739
2365
3065
3543
3867
3937
3766
3431
3126
2815
2559
2273
2076
1873
1750
1664
1733
2384
3280
4095
4095
4095
4095
3935
3540
3149
2839
2516
2262
2014
1840
1679
1665
2190
2960
3619
4042
4095
3983
3650
3309
2976
2687
2378
2145
1936
1781
1655
1600
1895
2618
3429
4063
4095
4095
4042
3679
3285
2929
2638
2362
2112
1907
1751
1622
1769
2458
3371
4095
4095
4095
4095
3935
3547
3167
2835
2546
2265
2032
1855
1703
1712
2090
2739
3181
3445
3548
3453
3251
3033
2758
2526
2275
2111
1932
1799
1719
1655
1945
2587
3163
3554
3755
3679
3468
3204
2935
2671
2419
2187
1985
1823
1717
1659
1761
2334
2921
3264
3437
3435
3284
3101
2832
2624
2397
2186
2011
1872
1763
1693
1666
2239
3004
3579
4026
4095
3921
3654
3253
2947
2657
2362
2128
1936
1763
1666
1669
2075
2911
3842
4095
4095
4095
4095
3786
3396
3050
2727
2433
2165
1952
1787
1667
1803
2366
2943
3287
3514
3487
3381
3166
2908
2667
2427
2201
2032
1895
1763
1686
1755
2288
3023
3546
3862
3967
3797
3506
3179
2865
2559
2325
2098
1913
1758
1646
1577
1923
2509
2939
3199
3290
3250
3150
2958
2735
2510
2331
2117
1963
1851
1757
1693
2099
2946
4028
4095
4095
4095
4095
3945
3527
3152
2806
2512
2240
2012
1839
1713
1844
2605
3639
4095
4095
4095
4095
4038
3665
3254
2909
2611
2340
2096
1898
1739
1686
2432
4095
4095
4095
4095
4095
4095
4095
4095
4095
3793
3401
3057
2736
2445
2177
2483
3319
4095
4095
4095
4095
4095
3750
3350
3022
2679
2390
2142
1935
1776
1654
1813
2550
3490
4095
4095
4095
4095
3907
3505
3110
2777
2481
2199
1993
1813
1680
1712
2221
3030
3654
4095
4095
4054
3765
3409
2995
2705
2423
2198
1961
1783
1655
1651
2155
2994
3888
4095
4095
4095
3989
3611
3225
2897
2585
2311
2067
1878
1741
1611
1826
2461
3136
3633
3888
3906
3677
3386
3087
2784
2514
2267
2064
1872
1729
1664
1776
2311
3001
3504
3756
3754
3632
3353
3012
2800
2506
2291
2047
1893
1764
1657
1651
2053
2750
3203
3441
3597
3530
3296
3041
2781
2537
2304
2133
1936
1795
1698
1616
1935
2659
3321
3798
4012
4015
3728
3408
3099
2788
2506
2239
2001
1838
1711
1621
1808
2506
3344
4021
4095
4095
4079
3739
3315
2991
2649
2363
2125
1921
1770
1648
1627
2150
2923
3631
4095
4095
4071
3791
3330
3041
2705
2427
2177
1962
1789
1670
1598
1984
2709
3219
3559
3670
3618
3393
3133
2865
2607
2362
2143
1955
1818
1710
1642
1905
2559
3253
3767
4009
4019
3824
3439
3151
2800
2519
2267
2034
1842
1717
1630
1739
2352
3071
3600
3954
4069
3839
3548
3193
2865
2590
2335
2063
1903
1755
1648
1627
2128
3071
4063
4095
4095
4095
4095
3826
3410
3031
2710
2439
2177
1953
1774
1730
2000
2694
3333
3806
4065
4023
3781
3413
3057
2777
2485
2241
2001
1831
1715
1626
1717
2268
2961
3453
3803
3812
3664
3409
3133
2817
2559
2292
2078
1919
1771
1680
1675
2186
3025
3726
4095
4095
4095
3830
3445
3071
2749
2469
2184
1963
1804
1685
1611
1954
2674
3257
3698
3920
3851
3582
3286
2985
2698
2427
2183
1977
1825
1705
1603
1814
2368
2953
3344
3524
3504
3367
3147
2893
2669
2416
2192
2005
1865
1761
1669
1744
2153
2662
2899
3050
3038
2948
2825
2660
2458
2286
2128
1984
1866
1802
1744
1735
2234
3137
4095
4095
4095
4095
4095
3826
3438
3058
2754
2451
2191
1966
1803
1679
1808
2399
2922
3227
3376
3329
3202
2991
2755
2559
2344
2135
1970
1843
1741
1710
1791
2418
3346
4095
4095
4095
4095
3909
3459
3135
2822
2487
2255
1999
1825
1698
1638
2115
2895
3607
4095
4095
4095
3827
3483
3083
2768
2470
2194
1987
1807
1676
1588
1941
2687
3483
4095
4095
4095
4021
3664
3289
2921
2615
2321
2103
1902
1744
1619
1756
2512
3467
4095
4095
4095
4095
4017
3638
3211
2898
2605
2298
2064
1862
1711
1727
2103
2555
2756
2830
2841
2769
2650
2496
2341
2203
2078
1943
1851
1793
1745
1725
2119
2800
3418
3915
4095
3991
3685
3315
3019
2703
2430
2193
1968
1798
1693
1616
1911
2713
3825
4095
4095
4095
4095
4079
3713
3287
2960
2624
2352
2112
1906
1747
1680
2118
2673
3010
3187
3257
3145
2991
2820
2605
2366
2199
2016
1888
1801
1719
1685
2095
2832
3503
4057
4095
4070
3772
3377
3039
2721
2443
2195
1967
1811
1685
1601
1835
2455
3054
3467
3685
3699
3501
3255
2971
2716
2459
2237
2023
1856
1741
1661
1802
2384
3008
3459
3699
3742
3525
3282
3028
2723
2485
2235
2035
1891
1754
1667
1661
2229
3181
4095
4095
4095
4095
4095
3760
3318
2971
2679
2399
2131
1915
1765
1665
2085
2896
3875
4095
4095
4095
4095
3829
3440
3086
2781
2448
2188
1968
1809
1665
1814
2505
3377
4095
4095
4095
4095
3819
3396
3066
2768
2467
2193
1968
1808
1670
1744
2337
3280
4095
4095
4095
4095
4094
3722
3310
2958
2662
2352
2128
1909
1743
1670
2214
3169
4095
4095
4095
4095
4095
3778
3374
3021
2672
2391
2160
1925
1771
1687
2001
2852
3893
4095
4095
4095
4095
3977
3596
3197
2886
2559
2291
2038
1840
1731
1777
2325
3042
3625
3968
4089
3859
3581
3198
2909
2619
2340
2127
1915
1766
1659
1680
2132
2907
3499
3955
4082
3967
3660
3303
2970
2673
2398
2143
1931
1790
1669
1594
1883
2559
3263
3754
4031
4016
3841
3451
3126
2789
2526
2257
2039
1864
1731
1616
1733
2284
2769
2997
3089
3090
2961
2793
2633
2446
2258
2114
1939
1843
1761
1718
1791
2486
3535
4095
4095
4095
4095
4095
3831
3431
3046
2741
2435
2179
1964
1802
1666
2020
2822
3582
4095
4095
4095
4002
3578
3216
2874
2559
2287
2061
1863
1730
1619
1807
2439
3200
3778
4095
4095
3929
3613
3209
2886
2591
2306
2096
1882
1744
1625
1669
2309
3195
4047
4095
4095
4095
3961
3606
3194
2876
2593
2251
2032
1840
1699
1639
1999
2689
3246
3698
3844
3787
3545
3248
2960
2674
2396
2190
1982
1825
1717
1631
1862
2526
3281
3894
4095
4095
3947
3571
3198
2884
2585
2314
2069
1867
1719
1616
1709
2277
2950
3393
3665
3667
3550
3294
3008
2753
2497
2263
2045
1882
1772
1658
1728
2174
3121
4095
4095
4095
4095
4095
3876
3455
3111
2779
2453
2192
1987
1815
1698
2032
2789
3515
4095
4095
4095
3949
3559
3186
2852
2559
2282
2054
1840
1731
1607
1863
2788
4095
4095
4095
4095
4095
4095
4095
3783
3381
3008
2704
2415
2176
1937
1859
2480
3727
4095
4095
4095
4095
4095
4095
3868
3507
3142
2797
2519
2230
1989
1865
2139
2749
3242
3555
3670
3536
3361
3104
2823
2553
2339
2133
1948
1799
1714
1628
1814
2469
3184
3730
4076
4082
3895
3540
3182
2846
2539
2288
2044
1866
1730
1616
1727
2349
3359
4095
4095
4095
4095
4094
3741
3310
2951
2647
2347
2122
1924
1744
1678
2067
2757
3369
3835
4023
3919
3612
3312
2976
2703
2403
2177
1983
1807
1696
1631
1935
2865
4095
4095
4095
4095
4095
4095
3934
3523
3144
2805
2512
2243
2000
1812
1863
2441
3220
3943
4095
4095
4095
3758
3370
2986
2704
2411
2123
1933
1770
1665
1637
2152
3038
3952
4095
4095
4095
4054
3696
3280
2930
2594
2306
2096
1891
1736
1655
1959
2799
3647
4095
4095
4095
4080
3717
3313
2974
2665
2375
2139
1936
1767
1648
1776
2349
3046
3519
3843
3877
3666
3392
3087
2791
2531
2295
2069
1890
1762
1642
1690
2197
2992
3683
4093
4095
4050
3728
3346
2987
2682
2413
2146
1929
1787
1670
1665
2039
2793
3425
3999
4095
4095
3802
3412
3086
2750
2464
2195
1968
1817
1696
1595
1803
2479
3163
3687
4021
4019
3833
3439
3121
2822
2512
2294
2071
1878
1727
1649
1806
2513
3618
4095
4095
4095
4095
4095
3790
3418
3039
2743
2434
2189
1946
1777
1679
2306
3410
4095
4095
4095
4095
4095
4095
3747
3350
3010
2671
2391
2134
1924
1776
2128
2910
3750
4095
4095
4095
4065
3675
3268
2922
2583
2323
2097
1879
1738
1646
1761
2519
3597
4095
4095
4095
4095
4087
3775
3331
2991
2659
2393
2147
1925
1742
1677
2157
2943
3665
4095
4095
4095
3824
3415
3085
2745
2445
2219
1985
1815
1690
1600
2046
2886
3843
4095
4095
4095
4095
3758
3376
2997
2701
2368
2137
1927
1767
1659
1917
2863
4095
4095
4095
4095
4095
4095
4095
3856
3441
3088
2767
2448
2215
1951
1995
2838
4095
4095
4095
4095
4095
4095
4095
4046
3679
3285
2963
2643
2353
2102
1933
2320
3098
3954
4095
4095
4095
4000
3559
3214
2883
2559
2284
2069
1859
1728
1602
1905
2693
3696
4095
4095
4095
4095
3968
3537
3152
2853
2510
2254
2011
1827
1701
1808
2431
3267
3990
4095
4095
4095
3828
3453
3037
2705
2407
2150
1949
1779
1655
1659
2147
2985
3685
4095
4095
4095
3874
3481
3125
2774
2491
2224
2000
1829
1684
1596
2154
3395
4095
4095
4095
4095
4095
4095
4095
3875
3504
3121
2784
2480
2198
2029
2162
2676
3344
3747
3963
3937
3630
3301
2983
2699
2421
2195
1991
1825
1706
1606
1731
2421
3666
4095
4095
4095
4095
4095
4095
3881
3467
3059
2767
2470
2193
1995
1817
2235
3120
4095
4095
4095
4095
4095
3778
3407
3025
2690
2419
2151
1939
1792
1647
1849
2481
3090
3495
3711
3689
3520
3264
2965
2683
2438
2195
2013
1843
1731
1651
1746
2335
3071
3715
4095
4095
3920
3617
3195
2939
2627
2359
2123
1917
1751
1645
1679
2263
3167
4095
4095
4095
4095
4036
3686
3296
2947
2626
2319
2103
1901
1759
1735
2179
3099
4095
4095
4095
4095
4095
4049
3651
3257
2943
2598
2313
2085
1893
1733
1915
2633
3519
4095
4095
4095
4095
3843
3441
3085
2736
2436
2190
1963
1792
1680
1713
2413
3527
4095
4095
4095
4095
4095
4063
3743
3297
2949
2643
2355
2131
1904
1845
2273
3109
4059
4095
4095
4095
4095
3741
3347
2988
2672
2349
2126
1927
1760
1646
1795
2363
2917
3295
3487
3449
3346
3118
2896
2635
2383
2177
2003
1860
1744
1646
1795
2413
3169
3851
4095
4095
4043
3643
3299
2927
2628
2320
2096
1910
1761
1651
1658
2165
2939
3605
4095
4095
4085
3855
3454
3057
2754
2470
2175
1981
1795
1675
1638
1951
2631
3241
3691
3898
3842
3627
3311
2989
2721
2450
2206
2007
1834
1710
1625
1783
2423
3199
3909
4095
4095
4045
3715
3373
2963
2666
2372
2141
1939
1777
1661
1653
2202
3087
3955
4095
4095
4095
3967
3614
3226
2885
2559
2290
2064
1862
1722
1619
1994
2829
3853
4095
4095
4095
4095
3935
3489
3115
2803
2483
2231
2004
1822
1699
1872
2538
3386
4095
4095
4095
4095
3717
3339
2983
2681
2384
2160
1920
1776
1648
1685
2192
2874
3314
3664
3694
3583
3344
3046
2795
2542
2274
2079
1904
1775
1685
1654
2027
2707
3314
3689
3901
3830
3599
3295
2960
2704
2401
2158
2000
1831
1718
1638
1790
2298
2734
2941
3015
2976
2874
2767
2590
2394
2231
2091
1957
1847
1786
1708
1822
2399
3120
3653
3947
4004
3787
3483
3117
2843
2579
2274
2071
1882
1735
1645
1616
2011
2649
3071
3334
3383
3359
3169
2957
2747
2496
2300
2077
1935
1807
1695
1657
1882
2422
2887
3104
3194
3181
3018
2846
2650
2448
2255
2096
1959
1843
1758
1690
1828
2400
2910
3181
3280
3237
3110
2910
2723
2506
2297
2141
1958
1855
1740
1680
1696
2160
2757
3122
3307
3342
3249
3071
2871
2653
2410
2230
2022
1893
1792
1727
1686
2027
2805
3552
4095
4095
4095
3964
3574
3172
2849
2550
2288
2041
1855
1712
1616
1808
2374
2887
3205
3366
3357
3223
3022
2801
2590
2353
2171
2008
1854
1769
1683
1747
2288
2971
3410
3669
3703
3565
3311
3028
2742
2493
2270
2033
1899
1751
1663
1696
2041
2657
3059
3285
3357
3281
3123
2918
2688
2475
2279
2090
1939
1808
1731
1673
2031
2957
4095
4095
4095
4095
4095
4095
4007
3614
3211
2896
2559
2310
2060
1855
1882
2398
3167
3751
4095
4095
3954
3609
3191
2911
2607
2295
2091
1891
1756
1642
1602
2071
2868
3542
4091
4095
4095
3872
3432
3088
2766
2506
2214
1990
1824
1679
1600
1968
2783
3727
4095
4095
4095
4095
3833
3454
3085
2733
2460
2193
1968
1788
1664
1747
2246
2823
3156
3344
3361
3239
3058
2850
2618
2400
2198
2045
1887
1789
1698
1687
2162
2893
3431
3795
3926
3829
3527
3143
2880
2608
2323
2115
1915
1789
1695
1637
1989
2705
3262
3701
3875
3795
3553
3260
2943
2672
2394
2176
1959
1812
1715
1606
1863
2418
3054
3467
3728
3699
3509
3280
3022
2723
2482
2224
2023
1872
1746
1654
1738
2171
2695
3027
3169
3179
3115
2953
2736
2559
2363
2177
2013
1879
1783
1725
1701
2135
2945
3725
4095
4095
4095
3933
3552
3175
2841
2550
2288
2047
1845
1697
1618
1873
2581
3251
3778
4041
4016
3771
3445
3103
2800
2481
2226
2018
1843
1722
1627
1745
2432
3504
4095
4095
4095
4095
4095
3821
3399
3018
2694
2432
2176
1954
1781
1685
2180
3041
3847
4095
4095
4095
3950
3566
3198
2863
2557
2303
2047
1840
1721
1648
1979
2763
3575
4095
4095
4095
4016
3646
3248
2906
2621
2312
2096
1900
1728
1619
1835
2613
3664
4095
4095
4095
4095
3993
3609
3226
2896
2583
2303
2068
1870
1729
1776
2383
3431
4095
4095
4095
4095
4095
3854
3440
3088
2751
2428
2182
1954
1803
1714
2177
3026
4001
4095
4095
4095
4080
3766
3350
3003
2674
2366
2120
1915
1765
1615
1930
2709
3499
4095
4095
4095
4049
3681
3268
2928
2631
2338
2094
1903
1730
1644
1703
2259
2974
3537
4011
4095
3920
3607
3191
2951
2642
2336
2116
1935
1771
1648
1598
2039
2778
3300
3711
3885
3760
3501
3248
2919
2656
2389
2164
1961
1808
1683
1614
1882
2550
3221
3760
3986
4011
3760
3445
3106
2790
2512
2251
2034
1855
1719
1613
1670
2195
2864
3249
3515
3583
3489
3238
3021
2736
2522
2293
2095
1889
1791
1690
1728
2176
2869
3390
3712
3856
3721
3473
3163
2898
2604
2351
2127
1943
1777
1676
1616
1934
2459
2896
3148
3267
3226
3087
2910
2699
2479
2291
2105
1959
1835
1752
1694
1881
2467
3071
3536
3755
3738
3583
3309
3018
2731
2461
2215
2015
1872
1739
1626
1719
2338
3223
4082
4095
4095
4095
3927
3557
3157
2827
2527
2256
2019
1840
1719
1616
2000
2701
3280
3694
3890
3807
3530
3230
2960
2678
2416
2176
1982
1819
1699
1616
1936
2720
3673
4095
4095
4095
4095
3888
3439
3094
2758
2457
2189
1968
1804
1655
1707
2117
2640
2918
3091
3095
3045
2883
2702
2526
2342
2161
1986
1878
1802
1744
1712
2223
3002
3718
4095
4095
4095
3803
3399
3057
2725
2448
2192
1985
1791
1677
1611
1958
2775
3529
4095
4095
4095
4050
3643
3261
2919
2607
2314
2073
1872
1728
1623
1789
2451
3201
3845
4095
4095
3965
3575
3222
2906
2611
2309
2069
1882
1744
1630
1612
2143
2959
3541
4027
4095
4058
3735
3322
2997
2682
2423
2166
1950
1790
1663
1677
2113
2817
3392
3769
3923
3777
3549
3246
2806
2628
2370
2145
1935
1804
1691
1618
1821
2435
3024
3451
3699
3696
3487
3236
2963
2694
2433
2234
2038
1851
1757
1651
1774
2386
3090
3700
3998
4020
3858
3489
3152
2849
2544
2277
2055
1879
1754
1647
1605
1993
2692
3146
3462
3535
3456
3293
3039
2800
2559
2305
2111
1950
1808
1718
1627
1904
2547
3139
3550
3760
3767
3535
3277
2966
2690
2412
2196
1986
1845
1734
1634
1799
2437
3171
3804
4095
4095
3941
3583
3222
2896
2559
2307
2087
1885
1737
1623
1668
2189
2725
3039
3175
3183
3061
2919
2713
2507
2343
2161
1976
1878
1764
1706
1718
2063
2683
3147
3433
3553
3431
3259
3033
2775
2525
2288
2097
1939
1801
1726
1648
1840
2490
3273
3998
4095
4095
4043
3713
3339
2975
2661
2388
2128
1923
1763
1642
1699
2167
2800
3197
3408
3469
3357
3159
2937
2717
2456
2231
2077
1903
1795
1702
1654
2081
2870
3632
4095
4095
4095
3985
3569
3197
2870
2533
2287
2032
1849
1703
1584
1829
2353
2754
3023
3107
3086
2967
2839
2619
2457
2274
2122
1957
1840
1780
1696
1841
2462
3376
4095
4095
4095
4095
3840
3413
3061
2749
2416
2210
1966
1803
1659
1679
2159
2859
3404
3762
3910
3792
3504
3207
2911
2615
2385
2134
1947
1807
1678
1610
1918
2605
3175
3600
3837
3774
3531
3279
2991
2704
2416
2223
2002
1841
1728
1664
1968
2766
4068
4095
4095
4095
4095
4095
3952
3535
3152
2801
2506
2258
2015
1843
1804
2395
3328
4095
4095
4095
4095
4037
3622
3264
2908
2602
2301
2080
1871
1744
1703
2192
3177
4095
4095
4095
4095
4095
3923
3553
3159
2841
2510
2267
2020
1858
1705
1849
2430
3057
3407
3701
3684
3499
3242
2992
2704
2465
2207
2019
1872
1744
1667
1732
2351
3239
4064
4095
4095
4095
3980
3600
3216
2880
2559
2288
2054
1846
1713
1685
2002
2667
3110
3385
3472
3434
3249
3023
2786
2549
2322
2127
1943
1815
1711
1659
1909
2478
2955
3285
3376
3335
3205
2985
2770
2544
2331
2156
1966
1840
1735
1652
1838
2448
3279
3966
4095
4095
4095
3741
3358
3008
2672
2386
2158
1931
1765
1652
1628
2234
3298
4095
4095
4095
4095
4095
4015
3614
3219
2886
2590
2306
2055
1862
1719
2000
2719
3375
3882
4091
4060
3781
3455
3087
2768
2454
2239
2000
1825
1697
1632
1818
2406
3026
3439
3669
3645
3454
3215
2956
2689
2437
2224
2027
1866
1734
1648
1712
2255
3126
3963
4095
4095
4095
3999
3577
3206
2873
2554
2258
2063
1845
1714
1613
1951
2704
3358
3782
4016
3988
3698
3376
3023
2736
2459
2209
1991
1822
1722
1586
1808
2397
2955
3337
3487
3539
3376
3154
2913
2674
2411
2199
2011
1857
1764
1687
1827
2423
3203
3925
4095
4095
4095
3743
3294
3014
2651
2384
2121
1940
1777
1648
1647
2047
2753
3241
3598
3719
3629
3419
3141
2848
2597
2352
2155
1945
1787
1705
1602
2047
2899
3902
4095
4095
4095
4095
3893
3500
3131
2768
2512
2240
2015
1819
1655
1790
2423
3294
4080
4095
4095
4095
3857
3475
3111
2768
2496
2215
1980
1810
1686
1680
2275
3335
4095
4095
4095
4095
4095
3993
3616
3223
2914
2545
2310
2053
1871
1737
2015
2537
2892
3127
3149
3093
2976
2805
2595
2401
2237
2065
1921
1831
1756
1697
1899
2508
3137
3583
3849
3811
3613
3310
3012
2729
2480
2224
2000
1849
1746
1645
1698
2206
2958
3572
3989
4095
3952
3632
3298
2944
2652
2357
2105
1926
1765
1674
1616
2029
2705
3197
3490
3659
3583
3371
3102
2842
2590
2339
2128
1942
1814
1696
1707
1990
2629
3216
3583
3844
3779
3525
3250
2934
2672
2390
2164
1998
1821
1715
1649
1776
2365
2917
3279
3488
3459
3334
3105
2871
2643
2384
2177
2000
1881
1739
1695
1776
2275
3009
3663
4058
4095
3980
3637
3280
2933
2644
2342
2109
1902
1762
1659
1573
1963
2822
3749
4095
4095
4095
4095
3877
3476
3120
2761
2491
2192
1969
1783
1678
1837
2399
3091
3552
3872
3889
3722
3409
3102
2805
2523
2267
2035
1888
1737
1644
1632
2015
2423
2587
2671
2659
2587
2506
2381
2266
2150
2066
1915
1872
1794
1759
1798
2229
2996
3773
4095
4095
4095
3875
3472
3133
2805
2502
2247
2001
1839
1695
1600
1782
2311
2814
3090
3216
3223
3122
2963
2766
2539
2350
2160
2000
1855
1763
1706
1879
2646
3614
4095
4095
4095
4095
4019
3629
3216
2879
2559
2288
2062
1866
1724
1637
2047
2723
3161
3466
3557
3511
3278
3086
2813
2540
2333
2098
1936
1814
1712
1629
1942
2605
3150
3505
3740
3625
3456
3193
2885
2626
2382
2167
1973
1827
1716
1631
1812
2414
3103
3616
3998
3982
3775
3467
3155
2826
2554
2291
2032
1883
1733
1638
1638
2144
2829
3365
3723
3856
3705
3443
3185
2875
2590
2343
2131
1954
1777
1667
1613
1989
2720
3536
4095
4095
4095
4031
3645
3307
2925
2597
2337
2097
1895
1758
1616
1771
2441
3183
3801
4095
4095
3967
3615
3230
2897
2608
2315
2090
1888
1738
1646
1680
2165
2989
3583
4066
4095
4077
3739
3377
3024
2717
2405
2147
1962
1776
1662
1597
1978
2659
3136
3475
3625
3572
3331
3104
2838
2602
2358
2147
1955
1808
1709
1648
1921
2625
3344
3921
4095
4095
3878
3536
3183
2858
2528
2275
2039
1846
1703
1602
1722
2293
3056
3603
3962
4031
3839
3551
3137
2885
2607
2317
2098
1918
1763
1651
1605
2007
2757
3337
3769
3955
3830
3607
3282
2974
2681
2407
2161
1981
1815
1696
1616
1945
2603
3232
3670
3883
3850
3600
3296
2989
2688
2426
2203
1981
1833
1725
1635
1776
2464
3285
4014
4095
4095
4057
3696
3323
3003
2655
2366
2128
1927
1773
1648
1671
2142
2859
3408
3847
4015
3882
3595
3253
2931
2651
2375
2157
1935
1804
1674
1616
2000
2742
3393
3953
4095
4095
3799
3423
3069
2763
2450
2206
1989
1834
1716
1588
1830
2493
3235
3871
4095
4095
3975
3611
3248
2897
2610
2309
2064
1888
1741
1614
1663
2243
3085
3920
4095
4095
4095
3920
3555
3166
2826
2513
2222
2007
1835
1697
1629
1965
2624
3122
3490
3642
3610
3367
3152
2864
2608
2384
2153
1967
1830
1722
1626
1904
2588
3341
3920
4095
4095
3888
3548
3174
2860
2547
2277
2042
1861
1703
1623
1753
2276
2913
3299
3529
3549
3450
3199
2947
2700
2450
2228
2062
1893
1771
1677
1675
2145
2869
3411
3825
3952
3797
3529
3225
2910
2626
2374
2160
1947
1803
1668
1600
1954
2655
3251
3681
3822
3808
3603
3264
2971
2693
2427
2191
1983
1830
1714
1588
1779
2369
2998
3447
3694
3714
3547
3279
3003
2730
2453
2209
2044
1877
1769
1648
1703
2283
3089
3831
4095
4095
4095
3806
3359
3057
2719
2430
2164
1970
1797
1658
1587
1984
2768
3517
4095
4095
4095
3926
3557
3169
2842
2539
2239
2030
1853
1696
1585
1777
2423
3034
3483
3755
3778
3583
3316
3056
2736
2471
2227
2043
1884
1737
1659
1731
2213
2861
3249
3463
3482
3360
3166
2932
2675
2423
2224
2030
1903
1765
1675
1680
2146
2878
3622
4095
4095
4095
3806
3444
3081
2759
2466
2187
1986
1827
1675
1607
1929
2608
3201
3583
3731
3696
3488
3195
2914
2653
2394
2187
1998
1828
1712
1647
1823
2458
3304
4077
4095
4095
4095
3794
3411
3026
2703
2404
2154
1946
1790
1657
1600
2071
2691
3220
3487
3617
3523
3305
3071
2793
2541
2317
2114
1945
1809
1712
1667
1998
2709
3310
3819
4029
3984
3702
3349
3047
2728
2419
2190
1994
1834
1705
1627
1792
2518
3418
4095
4095
4095
4095
3854
3437
3101
2781
2465
2208
1993
1806
1683
1680
2070
2690
3062
3292
3402
3293
3133
2925
2694
2467
2273
2063
1921
1818
1712
1691
2060
2834
3518
4095
4095
4095
3843
3449
3117
2774
2486
2206
1997
1830
1694
1626
1890
2627
3431
4095
4095
4095
4079
3712
3311
2960
2642
2368
2119
1904
1762
1619
1705
2240
2878
3362
3595
3683
3533
3296
3018
2794
2518
2306
2096
1910
1776
1669
1654
2112
2810
3363
3771
3896
3799
3526
3235
2922
2645
2391
2160
1953
1808
1684
1619
2083
3191
4095
4095
4095
4095
4095
4095
4095
3931
3512
3187
2864
2535
2261
2021
2032
2673
3639
4095
4095
4095
4095
3952
3561
3163
2837
2559
2272
2047
1840
1712
1682
2186
3025
3839
4095
4095
4095
3989
3559
3183
2857
2559
2259
2045
1863
1724
1626
1971
2643
3127
3471
3604
3583
3347
3112
2845
2594
2337
2166
1950
1815
1727
1657
1862
2495
3323
4032
4095
4095
4056
3685
3314
2995
2675
2377
2125
1933
1767
1649
1717
2498
3982
4095
4095
4095
4095
4095
4095
3927
3546
3157
2818
2515
2265
2032
1894
2202
2773
3243
3561
3645
3483
3307
3051
2797
2527
2304
2081
1925
1781
1697
1634
1878
2652
3461
4095
4095
4095
4095
3728
3320
2990
2672
2375
2127
1914
1761
1643
1776
2351
3120
3657
4027
4095
3920
3623
3222
2896
2608
2332
2125
1905
1743
1627
1631
2165
3129
4095
4095
4095
4095
4095
3898
3486
3135
2812
2491
2224
1998
1826
1703
1978
2608
3149
3502
3696
3598
3412
3173
2881
2640
2389
2162
1978
1826
1744
1649
1791
2448
3146
3686
4013
4078
3883
3525
3170
2839
2551
2318
2078
1872
1734
1639
1651
2126
2834
3355
3646
3718
3583
3376
3093
2810
2545
2301
2112
1933
1787
1680
1655
2038
2800
3531
4095
4095
4095
3952
3530
3165
2864
2554
2273
2020
1839
1725
1600
1968
2971
4095
4095
4095
4095
4095
4095
4095
3770
3375
2994
2695
2410
2139
1945
1868
2367
2989
3378
3562
3617
3425
3187
2951
2677
2437
2225
2013
1879
1744
1669
1639
2286
3511
4095
4095
4095
4095
4095
4095
3991
3640
3207
2891
2586
2301
2054
1939
2116
2686
3219
3553
3696
3635
3382
3139
2839
2602
2366
2132
1967
1824
1720
1630
1764
2334
2986
3419
3653
3705
3555
3297
3043
2743
2461
2242
2032
1884
1742
1667
1670
2099
2837
3344
3723
3856
3789
3463
3199
2905
2610
2372
2149
1938
1808
1697
1623
1993
2692
3291
3775
3911
3850
3619
3297
3008
2701
2433
2192
1980
1837
1696
1615
1778
2414
3142
3686
4053
4038
3841
3526
3184
2866
2559
2283
2081
1888
1742
1647
1710
2195
2850
3370
3712
3790
3629
3415
3091
2829
2559
2350
2086
1916
1786
1679
1634
1974
2669
3213
3597
3746
3673
3449
3184
2883
2621
2361
2149
1979
1827
1712
1648
1895
2559
3310
4011
4095
4095
4003
3639
3232
2899
2592
2323
2064
1873
1729
1622
1687
2255
2999
3503
3891
3907
3758
3453
3173
2863
2559
2295
2111
1912
1765
1664
1674
2086
2774
3345
3741
3854
3798
3527
3211
2915
2624
2352
2137
1948
1791
1706
1619
1936
2544
3130
3482
3629
3553
3371
3121
2879
2615
2371
2155
1976
1839
1731
1649
1776
2420
3170
3824
4095
4095
4063
3691
3326
2964
2661
2368
2137
1912
1766
1646
1659
2234
3193
4095
4095
4095
4095
4095
3808
3395
3047
2713
2423
2179
1963
1781
1667
1985
2787
3522
4095
4095
4095
3978
3604
3216
2880
2559
2302
2061
1861
1727
1632
1825
2398
2944
3269
3426
3418
3274
3056
2832
2608
2378
2177
1990
1860
1744
1665
1758
2320
3248
4095
4095
4095
4095
3989
3671
3232
2871
2594
2304
2066
1878
1703
1626
1951
2487
2880
3121
3185
3145
3021
2847
2662
2447
2258
2090
1943
1819
1751
1710
1920
2513
3083
3407
3537
3506
3315
3088
2844
2615
2346
2192
1976
1840
1723
1676
1785
2369
3126
3648
4071
4095
3874
3553
3179
2902
2582
2307
2098
1905
1751
1632
1619
2032
2662
3095
3403
3434
3378
3216
2995
2758
2511
2294
2113
1939
1827
1713
1680
2027
2713
3293
3693
3844
3739
3504
3217
2938
2641
2389
2150
1966
1803
1725
1643
1781
2375
2976
3386
3648
3647
3408
3216
2977
2704
2449
2233
2032
1856
1762
1665
1732
2288
3149
3986
4095
4095
4095
3975
3552
3153
2835
2513
2254
2017
1843
1711
1610
1941
2480
2801
2950
3027
2947
2842
2687
2517
2336
2178
2038
1931
1811
1758
1735
1965
2604
3273
3820
4086
4095
3794
3413
3100
2779
2470
2247
1999
1856
1717
1623
1716
2307
3084
3702
4066
4095
3953
3648
3283
2929
2636
2384
2128
1904
1763
1654
1631
2067
2854
3570
4093
4095
4095
3856
3447
3117
2791
2486
2229
1999
1818
1691
1617
1851
2480
2966
3312
3418
3450
3248
3046
2811
2581
2367
2169
1970
1857
1739
1684
1900
2686
3750
4095
4095
4095
4095
4078
3695
3312
2957
2624
2353
2112
1911
1758
1723
2267
3071
3794
4095
4095
4095
3792
3407
3043
2717
2422
2180
1949
1792
1676
1598
2192
3738
4095
4095
4095
4095
4095
4095
4095
4095
4095
3818
3434
3056
2746
2448
2399
2860
3526
4065
4095
4095
3824
3435
3102
2758
2463
2206
1998
1826
1669
1585
1631
2143
2896
3473
3943
4015
3920
3616
3261
2961
2659
2384
2130
1936
1803
1669
1638
1951
2609
3115
3444
3578
3556
3366
3136
2871
2608
2347
2169
1962
1840
1744
1678
1995
2679
3335
3818
3985
3973
3734
3361
3029
2743
2462
2192
1997
1821
1711
1614
1732
2403
3462
4095
4095
4095
4095
4095
3853
3450
3056
2736
2442
2176
1952
1797
1675
2102
2793
3451
3955
4095
4031
3724
3376
3041
2735
2461
2213
1987
1808
1683
1615
1870
2554
3218
3712
4051
3984
3773
3457
3089
2795
2510
2227
2038
1853
1729
1622
1722
2351
3131
3758
4095
4095
4016
3670
3312
2920
2619
2368
2114
1920
1760
1632
1616
2113
3053
3975
4095
4095
4095
4095
3792
3328
3011
2691
2383
2139
1936
1770
1649
1909
2606
3268
3774
4079
4014
3761
3433
3101
2770
2478
2240
2017
1853
1710
1616
1863
2633
3654
4095
4095
4095
4095
3975
3575
3200
2851
2553
2256
2045
1839
1709
1740
2117
2676
3070
3342
3331
3266
3083
2912
2660
2439
2256
2062
1906
1797
1711
1690
2091
2655
2966
3205
3257
3182
3011
2832
2629
2416
2224
2058
1930
1803
1740
1697
2044
2844
3935
4095
4095
4095
4095
4016
3643
3248
2897
2590
2320
2075
1866
1739
1823
2375
3113
3658
4057
4095
3920
3568
3152
2896
2607
2326
2107
1891
1769
1657
1616
2076
2922
3651
4095
4095
4095
3926
3572
3198
2857
2554
2274
2041
1862
1703
1642
1892
2497
2989
3282
3391
3342
3214
3008
2768
2547
2331
2121
1963
1843
1747
1679
1850
2448
3105
3627
3906
3895
3679
3374
3100
2777
2502
2255
2034
1874
1741
1647
1679
2237
3088
3924
4095
4095
4095
3918
3514
3152
2810
2483
2259
2019
1826
1687
1614
1942
2559
3098
3452
3553
3551
3386
3109
2861
2618
2382
2161
1984
1843
1741
1648
1880
2374
2739
2929
3026
2979
2861
2723
2555
2394
2219
2081
1948
1845
1765
1722
1798
2406
3209
3906
4095
4095
4091
3764
3405
3013
2687
2384
2163
1936
1766
1659
1600
1955
2655
3159
3530
3682
3635
3401
3133
2898
2627
2375
2161
1969
1821
1718
1649
1926
2689
3465
4095
4095
4095
4048
3696
3255
2910
2603
2331
2087
1889
1732
1627
1744
2315
3184
3955
4095
4095
4095
3872
3486
3113
2781
2485
2239
1999
1829
1667
1662
2066
2770
3258
3602
3776
3683
3440
3150
2883
2608
2374
2150
1968
1807
1683
1665
1985
2755
3553
4095
4095
4095
4081
3751
3325
2966
2675
2365
2128
1908
1771
1650
1842
2864
4095
4095
4095
4095
4095
4095
4095
4095
3813
3426
3067
2752
2461
2192
2122
2559
3298
3984
4095
4095
4059
3686
3253
2929
2617
2347
2121
1893
1739
1632
1583
1983
2770
3572
4095
4095
4095
4074
3668
3313
2943
2626
2329
2103
1907
1756
1641
1830
2475
3170
3664
3967
3967
3731
3411
3088
2797
2535
2256
2057
1863
1737
1651
1751
2257
2998
3541
3907
4014
3911
3558
3219
2896
2633
2341
2140
1923
1782
1664
1645
2065
2781
3387
3846
4010
3923
3658
3343
2985
2697
2417
2183
1977
1797
1682
1641
1997
2737
3505
4055
4095
4095
3943
3569
3203
2855
2544
2285
2046
1851
1712
1644
1779
2390
3131
3827
4095
4095
4049
3679
3340
2963
2649
2375
2126
1919
1757
1647
1648
2192
3109
4085
4095
4095
4095
4067
3706
3328
2960
2650
2379
2114
1915
1757
1645
2077
2909
3829
4095
4095
4095
4095
3713
3363
2992
2651
2365
2131
1915
1772
1642
1776
2357
2912
3287
3517
3568
3423
3184
2917
2674
2435
2240
2047
1888
1776
1666
1747
2373
3478
4095
4095
4095
4095
4095
4028
3579
3190
2887
2551
2283
2063
1846
1728
2021
2623
3143
3458
3570
3510
3330
3079
2847
2559
2358
2160
1963
1808
1724
1631
1872
2454
3026
3435
3650
3601
3452
3200
2922
2674
2432
2192
2016
1861
1731
1659
1751
2320
2967
3427
3701
3755
3597
3339
3024
2788
2521
2247
2074
1900
1776
1678
1747
2304
3166
3955
4095
4095
4095
3881
3478
3130
2813
2480
2251
1999
1818
1695
1591
1854
2421
2902
3250
3439
3365
3216
3046
2817
2559
2352
2163
1989
1847
1776
1699
1873
2491
3136
3568
3792
3835
3617
3306
3037
2738
2459
2211
2007
1858
1744
1659
1663
1914
2335
2523
2623
2624
2586
2493
2405
2287
2177
2064
1977
1897
1831
1782
1761
2127
2612
2927
3067
3114
3039
2896
2706
2534
2321
2176
2007
1899
1792
1734
1680
1934
2601
3346
3971
4095
4095
3942
3600
3212
2857
2534
2277
2035
1858
1728
1623
1668
2170
2902
3504
3867
3984
3861
3538
3220
2899
2607
2330
2119
1923
1786
1668
1610
1999
2559
2929
3150
3191
3152
2999
2832
2619
2427
2222
2064
1936
1831
1744
1706
2010
2690
3373
3877
4095
4095
3795
3441
3052
2775
2471
2209
1993
1811
1701
1630
1744
2321
2983
3497
3774
3855
3696
3401
3088
2804
2522
2261
2054
1900
1758
1680
1674
2086
2781
3248
3556
3702
3613
3360
3088
2830
2550
2302
2107
1926
1796
1705
1643
1863
2401
2858
3088
3200
3189
3071
2902
2707
2494
2318
2124
1973
1850
1751
1702
1843
2383
3011
3440
3659
3671
3522
3261
2975
2704
2469
2238
2027
1874
1750
1662
1703
2179
2864
3345
3648
3775
3632
3381
3051
2836
2559
2343
2097
1920
1787
1681
1648
2010
2704
3359
3835
4011
3991
3712
3359
3029
2737
2454
2210
1983
1828
1711
1633
1808
2433
3134
3646
3933
3999
3770
3418
3134
2818
2555
2287
2063
1887
1734
1645
1685
2202
2913
3375
3702
3759
3612
3387
3111
2817
2559
2291
2123
1918
1786
1690
1677
2029
2545
2913
3136
3222
3141
3018
2827
2623
2438
2258
2078
1922
1829
1745
1697
1968
2589
3194
3578
3783
3747
3550
3247
2931
2686
2425
2196
1988
1838
1728
1661
1787
2241
2778
3009
3157
3169
3057
2876
2721
2498
2317
2122
1995
1871
1769
1712
1728
2245
3011
3645
4095
4095
4093
3715
3358
2993
2681
2412
2154
1941
1786
1653
1602
1934
2463
2907
3132
3198
3204
3054
2864
2672
2448
2271
2091
1936
1829
1762
1712
1852
2609
3771
4095
4095
4095
4095
4095
3850
3451
3087
2768
2448
2213
1981
1792
1790
2140
2490
2694
2755
2736
2671
2538
2433
2294
2145
2017
1924
1866
1809
1769
1744
2103
2707
3139
3415
3437
3343
3186
2954
2709
2475
2272
2078
1923
1791
1712
1623
1840
2271
2664
2871
2935
2908
2807
2667
2527
2352
2203
2065
1943
1835
1776
1715
1819
2294
2864
3255
3426
3510
3376
3171
2867
2681
2448
2241
2047
1897
1779
1697
1680
2080
2737
3209
3553
3682
3543
3358
3107
2846
2559
2339
2128
1939
1801
1710
1637
1935
2340
2611
2747
2775
2730
2623
2517
2359
2229
2128
2006
1899
1831
1797
1734
1893
2494
3187
3696
3954
3949
3790
3434
3118
2805
2498
2280
2046
1855
1729
1622
1629
2157
2923
3562
4095
4095
4046
3760
3363
3014
2703
2405
2160
1959
1792
1665
1604
1921
2601
3152
3531
3760
3707
3499
3218
2922
2666
2394
2181
1983
1836
1741
1626
1801
2375
2999
3408
3643
3682
3501
3264
2999
2719
2441
2211
2037
1867
1744
1687
1837
2397
3203
3907
4095
4095
4059
3765
3376
3020
2693
2407
2160
1935
1751
1649
1643
1983
2559
2977
3242
3350
3303
3120
2895
2695
2491
2263
2075
1934
1820
1744
1661
1968
2758
3691
4095
4095
4095
4095
3905
3495
3141
2795
2494
2214
2000
1815
1689
1774
2309
2999
3447
3693
3675
3557
3309
2984
2758
2482
2247
2059
1885
1749
1655
1670
2121
2882
3527
4048
4095
4066
3770
3376
3055
2721
2411
2182
1981
1808
1669
1570
1853
2432
2975
3283
3463
3404
3262
3081
2837
2586
2365
2173
1974
1850
1757
1690
1793
2301
2869
3232
3451
3430
3313
3120
2882
2631
2414
2192
2007
1878
1774
1698
1703
2096
2667
3041
3219
3303
3195
3043
2821
2629
2416
2228
2035
1913
1802
1723
1702
2035
2671
3103
3394
3471
3387
3231
3007
2754
2519
2295
2082
1940
1799
1728
1663
1821
2319
2758
3029
3116
3118
3003
2827
2658
2463
2289
2103
1953
1853
1769
1697
1763
2162
2660
2899
3037
3029
2957
2819
2674
2479
2283
2130
1993
1874
1779
1729
1733
2207
3120
4095
4095
4095
4095
4095
3900
3467
3088
2798
2480
2221
1977
1808
1658
1870
2356
2797
3071
3140
3127
3009
2863
2642
2463
2299
2133
1970
1863
1758
1703
1814
2223
2710
2967
3082
3069
2963
2829
2663
2447
2253
2117
1986
1865
1775
1717
1753
2147
2854
3373
3723
3837
3730
3475
3185
2875
2608
2352
2114
1936
1791
1683
1599
2003
2852
3824
4095
4095
4095
4095
3865
3423
3088
2763
2442
2192
1968
1808
1673
1801
2318
2857
3210
3370
3375
3250
3035
2832
2586
2384
2181
1997
1881
1751
1691
1700
2138
2690
3030
3248
3273
3188
3025
2787
2610
2387
2223
2047
1899
1787
1719
1666
2079
2777
3439
3838
4063
3959
3707
3323
3009
2706
2416
2181
1959
1817
1694
1612
1825
2419
2989
3435
3620
3645
3461
3201
2960
2688
2427
2224
2022
1877
1754
1648
1745
2206
2812
3223
3487
3547
3414
3206
2944
2734
2468
2259
2059
1905
1774
1693
1653
1981
2627
3088
3375
3491
3423
3254
3024
2787
2533
2315
2130
1951
1805
1728
1648
1887
2473
3053
3427
3629
3547
3403
3162
2886
2650
2409
2162
2006
1835
1730
1657
1743
2268
2949
3408
3719
3812
3598
3367
3098
2801
2542
2293
2084
1906
1766
1670
1664
1994
2549
2837
2974
3027
2957
2851
2682
2510
2338
2134
2020
1910
1820
1758
1712
2045
2713
3363
3840
4087
4016
3702
3375
3051
2748
2459
2208
2000
1816
1703
1631
1775
2238
2715
2965
3098
3116
3002
2863
2673
2479
2307
2121
1986
1871
1761
1732
1787
2223
2831
3226
3427
3434
3337
3104
2893
2643
2432
2209
2027
1872
1774
1685
1650
2093
2783
3340
3744
3920
3814
3536
3218
2933
2640
2363
2150
1941
1813
1690
1606
1819
2511
3271
3948
4095
4095
4007
3623
3286
2909
2605
2331
2098
1897
1739
1635
1705
2416
3347
4095
4095
4095
4095
4086
3631
3335
2962
2663
2367
2107
1926
1746
1776
2319
3219
4081
4095
4095
4095
3998
3632
3219
2915
2559
2314
2070
1872
1716
1642
2054
2902
3915
4095
4095
4095
4095
3935
3472
3119
2768
2467
2215
1979
1802
1678
1741
2240
2838
3250
3479
3535
3376
3169
2955
2693
2437
2224
2071
1888
1778
1677
1701
2118
2831
3328
3730
3811
3715
3433
3154
2859
2559
2322
2102
1925
1785
1680
1612
2019
2835
3781
4095
4095
4095
4095
3792
3401
3035
2689
2417
2141
1938
1783
1675
1882
2483
3226
3874
4095
4095
4038
3645
3252
2896
2626
2352
2067
1898
1744
1615
1701
2231
3040
3821
4095
4095
4095
3856
3461
3102
2784
2469
2199
1984
1792
1687
1638
2000
2679
3170
3533
3679
3678
3440
3159
2871
2635
2383
2171
1971
1814
1712
1641
1872
2318
2671
2816
2857
2783
2715
2595
2445
2272
2165
2032
1926
1828
1780
1723
1857
2423
3195
3847
4095
4095
4077
3695
3278
2958
2652
2353
2157
1905
1762
1658
1683
2211
3034
3927
4095
4095
4095
4018
3610
3245
2905
2592
2321
2056
1877
1726
1648
1889
2503
3061
3405
3546
3519
3349
3121
2878
2621
2384
2176
1999
1847
1747
1680
1799
2387
3066
3631
3916
3977
3808
3486
3179
2871
2549
2307
2096
1883
1744
1627
1632
1995
2529
2823
2954
2954
2917
2815
2640
2475
2318
2160
2032
1904
1823
1741
1773
2223
2943
3519
3935
4054
3905
3582
3212
2918
2608
2362
2112
1906
1776
1669
1616
1822
2417
3088
3598
3851
3856
3655
3370
3082
2770
2500
2258
2042
1877
1749
1623
1709
2319
3010
3522
3749
3887
3702
3375
3131
2800
2511
2305
2090
1886
1751
1667
1663
2174
3043
3983
4095
4095
4095
4018
3679
3273
2937
2605
2311
2112
1896
1742
1642
1905
2415
2827
3054
3165
3130
3019
2869
2643
2455
2284
2117
1968
1857
1766
1702
1837
2541
3495
4095
4095
4095
4095
4031
3602
3259
2894
2583
2318
2078
1886
1723
1662
2015
2687
3206
3541
3646
3613
3389
3152
2877
2624
2358
2157
1971
1822
1730
1662
1989
2779
3607
4095
4095
4095
4094
3696
3293
2956
2667
2384
2133
1919
1765
1661
1776
2339
3009
3503
3759
3790
3624
3357
3059
2790
2507
2279
2068
1904
1763
1654
1717
2235
2932
3520
3954
4016
3867
3581
3220
2928
2636
2361
2128
1927
1790
1680
1655
2021
2895
3781
4095
4095
4095
4095
3747
3363
2999
2690
2375
2147
1943
1776
1670
1852
2496
3192
3785
4086
4095
3872
3536
3189
2870
2559
2313
2064
1882
1746
1633
1679
2329
3313
4095
4095
4095
4095
4095
3861
3472
3107
2759
2451
2208
1991
1803
1748
2161
2911
3611
4095
4095
4095
3814
3414
3082
2746
2455
2182
1974
1817
1682
1606
1889
2432
2786
3007
3054
3011
2896
2733
2519
2382
2208
2065
1919
1824
1759
1712
1893
2627
3639
4095
4095
4095
4095
4066
3696
3280
2941
2659
2365
2102
1899
1744
1708
2287
3254
4095
4095
4095
4095
4095
3807
3443
3081
2733
2453
2178
1981
1785
1674
1982
2737
3504
4095
4095
4095
3984
3583
3219
2873
2559
2273
2047
1856
1729
1616
1746
2352
2999
3478
3776
3835
3675
3377
3088
2775
2517
2292
2071
1890
1759
1661
1680
2123
2709
3131
3312
3408
3330
3143
2914
2695
2475
2255
2055
1913
1808
1703
1673
2038
2883
3739
4095
4095
4095
4085
3763
3369
3013
2685
2399
2129
1923
1778
1645
1895
2496
3152
3615
3856
3826
3669
3351
3081
2752
2494
2254
2032
1872
1744
1633
1719
2390
3411
4095
4095
4095
4095
4095
3859
3483
3089
2790
2467
2206
1984
1806
1731
2139
2857
3502
4019
4095
4060
3775
3397
3030
2730
2455
2199
1969
1813
1685
1600
1787
2443
3066
3526
3795
3790
3597
3315
3014
2757
2493
2228
2059
1885
1770
1636
1751
2290
2912
3329
3583
3669
3523
3280
3053
2742
2496
2272
2057
1885
1762
1666
1678
2167
2918
3547
4031
4095
4059
3733
3392
3037
2719
2446
2151
1982
1799
1672
1587
1921
2600
3232
3681
3934
3887
3664
3344
3046
2736
2479
2237
2020
1853
1719
1621
1811
2544
3408
4095
4095
4095
4095
3831
3455
3084
2766
2476
2190
1968
1808
1662
1727
2153
2791
3168
3413
3515
3385
3199
2974
2733
2480
2244
2044
1904
1788
1698
1671
2082
2851
3519
4095
4095
4095
3888
3482
3117
2802
2480
2210
1991
1840
1694
1578
1791
2417
3035
3424
3680
3647
3487
3248
2962
2729
2463
2223
2045
1874
1745
1660
1737
2141
2726
2979
3151
3155
3082
2946
2719
2533
2373
2166
2022
1900
1786
1733
1703
2165
2995
3811
4095
4095
4095
3999
3607
3248
2893
2609
2315
2090
1897
1713
1627
1905
2764
4018
4095
4095
4095
4095
4095
3795
3392
3058
2715
2409
2186
1959
1778
1798
2378
3087
3639
4015
4071
3856
3563
3232
2885
2559
2311
2073
1891
1770
1638
1629
2118
3086
4095
4095
4095
4095
4095
3957
3568
3183
2860
2549
2289
2046
1849
1694
2010
2864
4022
4095
4095
4095
4095
4058
3691
3269
2960
2638
2352
2121
1905
1742
1840
2524
3449
4095
4095
4095
4095
4007
3627
3248
2869
2559
2304
2061
1886
1734
1723
2383
3729
4095
4095
4095
4095
4095
4095
4059
3707
3295
2945
2641
2359
2121
1919
2393
3741
4095
4095
4095
4095
4095
4095
4095
4095
3798
3371
3028
2706
2431
2130
2320
3386
4095
4095
4095
4095
4095
4095
4095
4095
4095
3792
3343
2992
2672
2410
2270
2819
4095
4095
4095
4095
4095
4095
3986
3663
3285
2918
2623
2321
2085
1876
1713
2080
2779
3415
3918
4089
3991
3721
3391
3054
2725
2436
2199
1995
1808
1677
1598
1902
2800
4095
4095
4095
4095
4095
4095
4002
3600
3203
2890
2583
2287
2071
1892
1929
2512
3327
4069
4095
4095
4077
3760
3376
2981
2658
2406
2126
1936
1786
1626
1618
2089
2896
3605
4095
4095
4095
3920
3497
3152
2816
2502
2256
2017
1828
1703
1603
1909
2799
3843
4095
4095
4095
4095
4027
3639
3217
2896
2559
2310
2070
1873
1744
1808
2434
3258
3971
4095
4095
4095
3766
3410
3025
2686
2397
2159
1925
1782
1642
1719
2303
3312
4095
4095
4095
4095
4095
3862
3437
3088
2755
2450
2197
1984
1811
1728
2108
2838
3519
4095
4095
4095
3873
3510
3167
2830
2512
2254
2003
1835
1711
1607
1839
2512
3246
3872
4095
4095
3981
3632
3234
2896
2606
2336
2086
1899
1731
1648
1735
2349
3216
4095
4095
4095
4095
3984
3576
3206
2889
2585
2299
2042
1873
1721
1672
2170
3008
4044
4095
4095
4095
4095
3765
3408
3024
2714
2427
2174
1958
1789
1640
1931
2706
3669
4095
4095
4095
4095
3855
3447
3101
2770
2460
2202
1978
1810
1671
1757
2365
3205
3907
4095
4095
4095
3809
3445
3058
2734
2441
2160
1947
1795
1646
1679
2124
2807
3243
3565
3622
3513
3314
3058
2797
2529
2304
2095
1935
1791
1693
1683
2022
2768
3418
3971
4095
4095
3847
3487
3135
2774
2474
2241
1999
1840
1691
1599
1744
2343
3025
3468
3728
3807
3580
3319
3056
2769
2498
2259
2047
1875
1765
1665
1695
2199
2880
3363
3645
3716
3577
3355
3116
2805
2540
2300
2114
1904
1794
1691
1647
2022
2779
3377
3893
4080
4019
3729
3355
3029
2735
2442
2209
1969
1815
1702
1613
1878
2620
3441
4095
4095
4095
4055
3642
3258
2929
2637
2346
2109
1908
1754
1616
1728
2315
3111
3731
4095
4095
4048
3731
3312
2971
2672
2369
2160
1937
1787
1675
1616
2084
2838
3504
3921
4095
4075
3783
3393
3056
2752
2429
2195
1994
1806
1706
1616
1891
2559
3259
3789
4095
4073
3850
3497
3137
2829
2557
2238
2029
1866
1721
1648
1728
2318
3027
3568
3903
3995
3838
3498
3167
2867
2578
2312
2091
1891
1748
1642
1627
2069
2736
3199
3495
3568
3467
3270
2998
2763
2518
2289
2075
1922
1797
1713
1651
2025
2771
3537
4095
4095
4095
3923
3538
3184
2859
2551
2295
2057
1866
1723
1611
1740
2385
3125
3722
4095
4095
3938
3583
3218
2905
2613
2337
2103
1907
1745
1654
1693
2205
2825
3247
3483
3505
3408
3200
2973
2702
2474
2282
2080
1904
1785
1685
1671
2130
2939
3701
4095
4095
4095
3913
3502
3131
2824
2528
2256
2018
1831
1697
1607
1836
2393
2758
2957
3052
2994
2879
2731
2549
2387
2210
2098
1921
1835
1759
1716
1873
2511
3375
4095
4095
4095
4095
3792
3409
3045
2722
2451
2160
1974
1791
1676
1623
2000
2608
2970
3196
3231
3216
3029
2864
2654
2448
2271
2089
1920
1808
1744
1712
2005
2619
3134
3466
3653
3600
3377
3154
2882
2609
2375
2192
1970
1826
1730
1666
1808
2352
2944
3317
3543
3568
3419
3201
2950
2683
2444
2207
2032
1882
1767
1680
1690
2268
3111
3957
4095
4095
4095
3946
3519
3184
2822
2523
2254
2029
1857
1713
1615
1925
2533
3031
3334
3447
3394
3232
3015
2794
2559
2319
2139
1987
1837
1735
1648
1840
2431
3088
3487
3807
3785
3563
3312
3056
2759
2497
2226
2038
1867
1738
1647
1776
2491
3726
4095
4095
4095
4095
4095
4085
3726
3344
2961
2677
2378
2131
1920
1821
2150
2800
3298
3662
3795
3678
3409
3147
2882
2608
2345
2135
1953
1814
1691
1621
1890
2503
3101
3517
3760
3698
3536
3262
2975
2719
2451
2246
2018
1879
1748
1666
1793
2410
3200
3826
4095
4095
4080
3730
3379
3033
2706
2391
2143
1935
1790
1662
1611
1985
2608
3015
3281
3331
3274
3141
2927
2704
2476
2256
2096
1947
1827
1743
1677
2029
2636
3159
3471
3635
3583
3381
3121
2881
2624
2366
2128
1985
1821
1726
1650
1770
2274
2831
3107
3253
3280
3133
2961
2757
2556
2362
2149
1999
1883
1775
1712
1781
2371
3406
4095
4095
4095
4095
4095
3919
3557
3156
2819
2516
2238
2027
1842
1731
2089
2807
3412
3931
4095
4071
3783
3425
3037
2737
2474
2225
1989
1815
1691
1621
1810
2352
2783
3070
3218
3213
3092
2919
2723
2522
2320
2129
1997
1883
1776
1716
1878
2439
3207
3865
4095
4095
4033
3664
3312
2928
2645
2382
2112
1921
1776
1652
1597
2001
2644
3121
3455
3565
3531
3377
3118
2863
2594
2375
2137
1984
1828
1714
1659
2013
2768
3575
4095
4095
4095
4031
3675
3251
2928
2631
2322
2107
1895
1759
1648
1755
2444
3325
4095
4095
4095
4095
3907
3575
3181
2810
2511
2272
2014
1823
1693
1638
2103
2951
3809
4095
4095
4095
4014
3667
3275
2926
2607
2336
2087
1895
1748
1643
1878
2499
2966
3266
3385
3398
3230
3033
2799
2559
2331
2160
1968
1843
1744
1689
1815
2382
3023
3536
3820
3888
3663
3369
3067
2779
2512
2265
2035
1874
1765
1648
1707
2134
2755
3180
3457
3536
3419
3238
3008
2748
2507
2299
2067
1926
1815
1708
1679
1982
2622
3132
3451
3597
3541
3351
3098
2864
2608
2352
2128
1968
1817
1712
1663
1865
2430
3034
3401
3579
3551
3414
3179
2927
2670
2416
2195
2010
1865
1745
1648
1741
2269
2967
3453
3781
3875
3722
3418
3100
2837
2549
2309
2103
1913
1776
1667
1617
2101
2777
3199
3467
3603
3474
3269
3027
2759
2512
2299
2096
1946
1789
1711
1654
1953
2719
3597
4095
4095
4095
4095
3730
3347
3008
2673
2378
2159
1937
1776
1680
1755
2239
2767
3115
3282
3281
3175
3021
2817
2608
2391
2195
2008
1902
1783
1711
1712
2252
3101
3991
4095
4095
4095
4026
3647
3252
2894
2590
2345
2086
1893
1746
1627
1859
2493
3061
3459
3685
3686
3511
3233
2982
2706
2467
2224
2021
1872
1727
1673
1812
2510
3423
4095
4095
4095
4095
3918
3581
3166
2819
2527
2254
2027
1842
1707
1725
2122
2704
3079
3301
3323
3245
3088
2910
2654
2448
2233
2074
1907
1808
1721
1696
1990
2654
3163
3515
3703
3623
3408
3149
2906
2624
2381
2163
1984
1811
1747
1659
1808
2373
2896
3273
3442
3436
3274
3054
2849
2609
2349
2181
1998
1856
1760
1686
1717
2185
2892
3407
3751
3867
3713
3427
3085
2864
2581
2332
2114
1921
1779
1671
1642
1974
2559
2960
3190
3271
3225
3083
2915
2689
2480
2257
2107
1955
1827
1738
1671
1911
2474
2960
3234
3382
3318
3211
3034
2798
2541
2327
2129
1985
1850
1772
1709
1789
2404
3203
3981
4095
4095
4095
3815
3422
3057
2745
2442
2182
1961
1783
1682
1680
2061
2703
3142
3361
3411
3371
3171
2975
2737
2500
2270
2116
1926
1819
1728
1647
2057
2823
3603
4095
4095
4095
3993
3634
3217
2886
2559
2287
2069
1883
1734
1648
1798
2301
2926
3344
3569
3631
3461
3247
2992
2721
2489
2243
2064
1904
1786
1666
1747
2209
2762
3155
3311
3397
3282
3086
2881
2651
2416
2243
2031
1888
1794
1714
1712
2057
2771
3386
3855
4095
4023
3760
3381
3056
2761
2464
2203
2014
1826
1694
1617
1815
2421
3095
3571
3857
3895
3696
3402
3114
2799
2527
2261
2075
1901
1740
1648
1700
2227
2941
3459
3830
3973
3818
3523
3170
2909
2604
2351
2123
1936
1774
1664
1618
2143
3063
4095
4095
4095
4095
4095
3915
3565
3167
2839
2537
2259
2046
1842
1692
1868
2395
2878
3163
3300
3307
3148
2992
2766
2543
2342
2160
1986
1851
1763
1654
1782
2240
2772
3091
3238
3239
3163
2975
2798
2580
2385
2183
2031
1872
1795
1711
1728
2199
2951
3649
4095
4095
4095
3834
3446
3084
2755
2482
2199
1983
1814
1690
1607
1840
2371
2736
2925
3018
3008
2921
2780
2603
2431
2253
2087
1956
1861
1790
1712
1872
2363
2832
3169
3329
3314
3175
2978
2800
2559
2347
2171
1984
1877
1773
1695
1721
2256
3004
3660
4095
4095
4062
3711
3363
3024
2707
2402
2145
1943
1791
1662
1601
1936
2590
3088
3453
3648
3569
3390
3126
2882
2621
2381
2162
1979
1843
1729
1679
1872
2299
2661
2839
2909
2890
2782
2645
2458
2356
2201
2063
1933
1856
1779
1743
1871
2431
3185
3856
4095
4095
4045
3703
3297
2982
2626
2372
2132
1907
1785
1651
1610
2009
2672
3136
3423
3539
3455
3266
3022
2801
2559
2319
2129
1952
1819
1717
1646
1955
2672
3471
4095
4095
4095
4079
3691
3275
2935
2643
2338
2111
1904
1750
1616
1712
2365
3290
4095
4095
4095
4095
4075
3729
3289
2943
2650
2352
2102
1923
1746
1711
2133
2883
3454
3912
3998
3923
3607
3283
2947
2687
2405
2134
1953
1790
1667
1607
1930
2624
3232
3711
3920
3888
3664
3369
3030
2753
2479
2235
2001
1845
1714
1652
1829
2485
3276
3892
4095
4095
4017
3675
3313
2955
2645
2356
2128
1919
1771
1637
1717
2295
3046
3583
3987
4029
3861
3559
3225
2911
2596
2351
2117
1899
1764
1659
1660
2216
3152
4095
4095
4095
4095
4095
3970
3549
3185
2867
2533
2267
2047
1861
1690
1812
2432
3067
3539
3827
3847
3659
3343
3050
2810
2486
2268
2064
1882
1767
1639
1665
2102
2699
3081
3229
3307
3232
3068
2834
2625
2423
2222
2022
1903
1791
1731
1819
2452
3524
4095
4095
4095
4095
4095
3970
3536
3162
2826
2523
2266
2019
1850
1683
1963
2800
3952
4095
4095
4095
4095
4095
3760
3349
2992
2672
2387
2127
1925
1799
2013
2747
3947
4095
4095
4095
4095
4095
3807
3416
3056
2721
2451
2180
1989
1785
1698
2113
2666
2962
3143
3165
3071
2923
2762
2534
2345
2192
2007
1895
1791
1743
1701
2042
2756
3423
3970
4095
4095
3856
3477
3099
2781
2465
2221
1997
1825
1716
1601
1808
2430
3142
3620
3950
4017
3797
3470
3150
2830
2581
2306
2059
1885
1735
1659
1703
2324
3202
4034
4095
4095
4095
3954
3622
3184
2839
2529
2267
2044
1839
1696
1623
2018
2721
3249
3643
3859
3721
3526
3223
2930
2665
2399
2192
1979
1818
1699
1627
1964
2928
4095
4095
4095
4095
4095
4095
4095
3747
3351
2999
2687
2401
2147
1921
1841
2222
2673
2967
3091
3120
3010
2863
2707
2480
2339
2140
1984
1887
1803
1718
1845
2275
2931
3399
3760
3799
3666
3383
3103
2821
2541
2299
2091
1915
1767
1670
1637
1888
2499
3093
3470
3653
3577
3409
3191
2925
2663
2447
2202
2002
1869
1740
1667
1820
2371
3050
3555
3824
3924
3699
3411
3109
2813
2559
2319
2069
1901
1745
1639
1625
2023
2702
3152
3408
3537
3469
3262
2986
2791
2528
2304
2119
1936
1826
1725
1674
2087
2846
3617
4095
4095
4095
4016
3639
3264
2915
2594
2326
2078
1899
1754
1642
1809
2346
2890
3248
3411
3423
3308
3094
2865
2608
2410
2190
2007
1870
1751
1679
1712
2191
2870
3270
3583
3617
3520
3290
3030
2767
2518
2271
2109
1904
1770
1695
1673
2129
2786
3338
3696
3856
3761
3471
3205
2897
2621
2371
2147
1949
1817
1695
1631
1892
2496
3121
3513
3693
3660
3482
3239
2941
2681
2425
2207
2000
1862
1734
1661
1768
2133
2502
2676
2733
2731
2653
2517
2414
2274
2145
2019
1936
1847
1811
1770
1779
2401
3643
4095
4095
4095
4095
4095
4095
3983
3633
3222
2871
2559
2315
2064
1907
2150
2794
3454
3938
4095
4095
3824
3442
3096
2750
2450
2203
2009
1825
1705
1594
1711
2359
3117
3706
4093
4095
3931
3610
3222
2896
2608
2321
2112
1909
1744
1634
1745
2438
3504
4095
4095
4095
4095
4095
3833
3423
3067
2717
2436
2183
1964
1808
1696
2035
2691
3213
3536
3648
3573
3365
3101
2848
2588
2362
2137
1945
1827
1728
1680
1905
2594
3440
4095
4095
4095
4048
3697
3303
2974
2658
2365
2128
1910
1750
1648
1711
2245
2989
3583
4023
4095
3975
3653
3312
2944
2641
2369
2145
1923
1778
1664
1635
2318
3907
4095
4095
4095
4095
4095
4095
4095
4095
3966
3630
3217
2869
2559
2297
2554
3309
4095
4095
4095
4095
4095
3777
3390
3020
2739
2435
2157
1961
1778
1677
1753
2364
3175
3833
4095
4095
4090
3773
3392
3012
2703
2439
2163
1931
1775
1674
1648
2125
2908
3641
4095
4095
4095
3841
3441
3090
2761
2448
2189
1975
1797
1670
1586
1901
2649
3349
3941
4095
4095
3919
3560
3159
2816
2550
2283
2032
1863
1733
1630
1696
2238
2749
3105
3279
3301
3195
3037
2829
2613
2410
2230
2021
1898
1776
1713
1823
2359
3127
3751
4095
4095
3982
3600
3213
2909
2593
2335
2109
1899
1750
1638
1569
2059
2933
3962
4095
4095
4095
4095
3909
3500
3131
2778
2471
2211
1998
1832
1664
1890
2695
3872
4095
4095
4095
4095
4095
3827
3431
3069
2720
2416
2178
1979
1797
1848
2473
3456
4095
4095
4095
4095
4095
3798
3389
3027
2719
2416
2151
1934
1783
1679
2263
3536
4095
4095
4095
4095
4095
4095
4095
3815
3427
3039
2761
2452
2209
1951
2078
2716
3455
4036
4095
4095
3989
3623
3221
2883
2559
2320
2043
1871
1726
1616
1774
2597
3968
4095
4095
4095
4095
4095
4095
3798
3451
3045
2734
2434
2199
1937
1826
2195
2796
3146
3365
3398
3312
3098
2886
2671
2419
2224
2047
1915
1792
1709
1658
2080
3006
4095
4095
4095
4095
4095
3979
3631
3209
2894
2613
2306
2059
1872
1771
1954
2559
3285
3879
4095
4095
3818
3501
3121
2831
2494
2275
2055
1853
1712
1626
1663
2175
3019
3664
4095
4095
4095
3822
3409
3057
2725
2447
2202
1968
1801
1676
1600
1990
2682
3329
3856
4095
4015
3783
3437
3101
2794
2490
2234
2003
1819
1712
1645
1855
2543
3295
3939
4095
4095
4014
3629
3249
2917
2605
2307
2107
1886
1738
1639
1765
2340
3147
3835
4095
4095
4095
3790
3378
3008
2729
2402
2181
1943
1784
1663
1588
2000
2758
3421
3983
4095
4095
3818
3467
3097
2774
2483
2194
2012
1835
1686
1613
1893
2730
3681
4095
4095
4095
4095
3966
3537
3168
2832
2481
2240
2017
1841
1698
1830
2595
3916
4095
4095
4095
4095
4095
4095
3754
3387
3000
2685
2393
2143
1931
1776
2250
3089
4004
4095
4095
4095
4050
3667
3282
2913
2627
2342
2087
1904
1742
1667
2055
2843
3665
4095
4095
4095
4095
3766
3346
3001
2683
2401
2138
1930
1783
1654
1773
2417
3375
4095
4095
4095
4095
3920
3495
3130
2820
2512
2251
2017
1827
1691
1699
2160
2941
3583
4016
4095
4041
3767
3380
3025
2717
2430
2155
1951
1791
1680
1610
2027
2967
4014
4095
4095
4095
4095
3988
3565
3218
2851
2559
2276
2038
1846
1727
1846
2403
3039
3425
3743
3677
3520
2815
2918
2908
2863
2733
2605
2429
2254
2128
1965
1870
1808
1755
1723
1982
2608
3254
3679
3842
3856
3568
3285
3004
2691
2437
2191
1968
1841
1712
1600
1691
2210
2762
3070
3221
3250
3151
2960
2815
2589
2363
2160
2039
1883
1777
1707
1712
2194
2817
3206
3373
3427
3314
3120
2867
2649
2420
2243
2061
1888
1781
1683
1648
1968
2651
3245
3645
3863
3818
3559
3251
2960
2695
2411
2195
1981
1811
1699
1636
1829
2679
3915
4095
4095
4095
4095
4095
3875
3473
3105
2753
2455
2222
1983
1811
1756
2150
2768
3155
3343
3371
3273
3103
2882
2645
2414
2237
2059
1905
1776
1719
1655
2126
2962
3895
4095
4095
4095
4095
3749
3382
3018
2693
2398
2140
1938
1792
1712
1856
2501
3182
3722
4021
4016
3801
3456
3113
2790
2521
2243
2035
1874
1732
1616
1639
2215
3001
3662
4095
4095
4095
3753
3351
3027
2705
2416
2162
1942
1794
1663
1605
1968
2683
3331
3763
3986
3914
3663
3297
2995
2706
2434
2190
1991
1835
1712
1619
1843
2472
3086
3474
3717
3685
3488
3248
2970
2695
2431
2201
2029
1864
1733
1628
1747
2299
3031
3659
4095
4095
3935
3602
3227
2919
2607
2325
2081
1910
1775
1649
1623
2129
2672
2944
3069
3090
2970
2848
2681
2496
2291
2160
2006
1873
1787
1712
1694
2025
2749
3457
4021
4095
4095
3853
3515
3135
2809
2513
2246
2000
1824
1699
1613
1731
2281
2874
3191
3371
3344
3238
3059
2848
2599
2401
2162
2011
1872
1776
1683
1691
2210
2899
3411
3798
3859
3754
3476
3178
2875
2559
2320
2123
1925
1770
1677
1617
2042
2951
4095
4095
4095
4095
4095
4022
3665
3266
2906
2608
2325
2096
1877
1723
1891
2422
3025
3363
3521
3526
3356
3133
2869
2608
2373
2192
1998
1858
1735
1637
1723
2336
3280
4095
4095
4095
4095
4079
3771
3373
3001
2679
2385
2154
1936
1766
1750
2198
2929
3557
4047
4095
4002
3658
3287
2979
2665
2355
2133
1935
1777
1690
1594
1914
2645
3414
4065
4095
4095
3974
3648
3237
2929
2612
2343
2075
1882
1727
1637
1735
2399
3409
4095
4095
4095
4095
4091
3703
3339
2981
2682
2359
2142
1920
1747
1735
2365
3412
4095
4095
4095
4095
4095
3895
3503
3141
2809
2498
2221
2000
1817
1679
2005
2590
3091
3394
3551
3445
3283
3065
2801
2559
2320
2121
1945
1830
1714
1644
1821
2385
2957
3301
3439
3413
3247
3026
2816
2607
2336
2155
1991
1858
1746
1650
1712
2302
3218
4095
4095
4095
4095
4059
3615
3280
2928
2624
2329
2098
1875
1724
1663
2064
2729
3227
3490
3634
3505
3330
3056
2819
2547
2334
2115
1936
1813
1715
1616
1870
2528
3320
3968
4095
4095
4015
3668
3272
2931
2621
2306
2102
1891
1728
1648
1757
2321
3031
3500
3766
3824
3667
3366
3071
2783
2527
2279
2064
1884
1744
1663
1589
1981
2544
2896
3094
3164
3058
2917
2773
2559
2369
2229
2045
1904
1802
1734
1676
1968
2671
3325
3789
4004
3962
3675
3342
3001
2739
2473
2192
2005
1831
1699
1623
1754
2499
3404
4095
4095
4095
4095
3930
3638
3200
2851
2554
2265
2032
1851
1726
1671
2179
2969
3696
4095
4095
4095
3841
3461
3050
2761
2482
2224
1997
1827
1680
1610
1910
2559
3127
3450
3605
3600
3376
3120
2880
2608
2345
2158
1983
1827
1711
1664
1904
2555
3361
4030
4095
4095
3988
3611
3255
2916
2608
2304
2090
1869
1743
1612
1676
2210
2935
3542
3979
4095
3970
3681
3323
2978
2673
2414
2126
1925
1774
1664
1645
2161
3263
4095
4095
4095
4095
4095
4095
3824
3429
3053
2736
2438
2190
1950
1802
2079
2848
3856
4095
4095
4095
4095
3943
3505
3137
2793
2512
2255
2011
1838
1705
1792
2378
3089
3630
3979
4002
3799
3488
3105
2832
2559
2274
2096
1879
1733
1654
1643
2177
3019
3866
4095
4095
4095
3956
3598
3198
2874
2554
2272
2043
1869
1706
1620
1926
2598
3226
3645
3832
3781
3559
3269
2982
2710
2416
2211
2004
1835
1721
1639
1849
2687
3907
4095
4095
4095
4095
4095
3952
3571
3191
2832
2548
2261
2047
1841
1762
2228
2971
3509
3886
4002
3858
3539
3218
2885
2608
2320
2112
1914
1759
1652
1610
1886
2347
2602
2720
2736
2697
2623
2510
2384
2226
2107
1987
1922
1842
1783
1744
1945
2510
3123
3549
3784
3733
3554
3280
2992
2692
2448
2213
2001
1847
1731
1659
1779
2413
3222
3906
4095
4095
4066
3723
3394
3010
2663
2374
2110
1923
1776
1660
1607
2032
2765
3376
3824
4023
3926
3663
3344
2996
2678
2401
2151
1965
1805
1675
1623
1920
2672
3441
4053
4095
4095
3959
3598
3199
2891
2559
2315
2064
1885
1721
1618
1770
2434
3264
4048
4095
4095
4095
3826
3456
3053
2734
2420
2203
1958
1808
1673
1638
2178
3091
3979
4095
4095
4095
4078
3683
3289
2943
2623
2331
2106
1894
1739
1626
1987
2649
3211
3526
3698
3623
3408
3165
2886
2625
2401
2160
1965
1815
1712
1622
1754
2178
2539
2685
2792
2771
2672
2559
2431
2292
2157
2021
1923
1851
1798
1724
1815
2320
3110
3748
4095
4095
4055
3670
3313
2960
2656
2356
2115
1917
1752
1639
1600
2032
2788
3406
3809
4015
3948
3661
3330
2973
2695
2410
2181
1957
1794
1683
1616
1862
2426
2930
3257
3426
3389
3237
3055
2809
2559
2336
2148
1984
1839
1744
1670
1777
2416
3238
3998
4095
4095
4095
3826
3346
3060
2736
2439
2165
1974
1805
1662
1645
2128
2918
3456
3867
3983
3813
3568
3225
2915
2643
2362
2136
1934
1776
1690
1597
1983
2841
3779
4095
4095
4095
4095
3859
3441
3091
2787
2459
2221
2000
1793
1724
1872
2475
3106
3519
3789
3741
3530
3279
3006
2707
2473
2211
1998
1846
1738
1641
1715
2222
2993
3514
3925
4030
3846
3547
3195
2914
2605
2350
2121
1921
1754
1680
1639
1999
2704
3340
3833
4037
3989
3698
3326
3024
2735
2447
2193
1986
1821
1703
1622
1921
2607
3427
4055
4095
4095
4006
3671
3284
2918
2641
2333
2078
1885
1738
1636
1724
2288
2931
3361
3597
3614
3487
3254
3009
2733
2483
2259
2064
1894
1759
1687
1648
2096
2837
3426
3861
4006
3894
3627
3275
2967
2663
2401
2130
1951
1791
1677
1618
1994
2743
3621
4095
4095
4095
4048
3693
3264
2928
2599
2337
2086
1886
1743
1634
1790
2352
2987
3301
3525
3511
3420
3160
2921
2657
2416
2199
2031
1872
1761
1675
1765
2396
3456
4095
4095
4095
4095
4095
3867
3508
3122
2798
2476
2212
1989
1821
1675
1981
2663
3218
3605
3775
3699
3470
3216
2917
2640
2399
2178
1974
1828
1722
1626
1806
2438
3142
3637
3903
3923
3726
3405
3083
2796
2495
2262
2064
1879
1729
1613
1695
2247
2992
3522
3881
3904
3787
3511
3134
2849
2590
2320
2112
1913
1778
1669
1611
1984
2595
2951
3194
3265
3171
3043
2846
2650
2437
2235
2062
1907
1815
1728
1718
2035
2711
3485
4095
4095
4095
3945
3554
3213
2862
2513
2283
2032
1860
1712
1617
1737
2306
3047
3574
3926
3950
3793
3492
3120
2850
2579
2288
2090
1885
1760
1652
1610
2069
2559
2768
2828
2847
2741
2627
2491
2325
2191
2062
1936
1869
1799
1744
1749
2043
2719
3379
3821
4047
3917
3696
3354
3015
2705
2421
2178
1973
1815
1686
1614
1744
2422
3308
4095
4095
4095
4095
3920
3547
3115
2799
2496
2224
2000
1837
1680
1682
2117
2710
3038
3219
3276
3195
3001
2824
2596
2384
2183
2032
1900
1793
1725
1663
2064
2759
3373
3763
3973
3924
3635
3294
2966
2686
2420
2186
1955
1804
1687
1631
1891
2514
3110
3516
3683
3686
3491
3231
2966
2687
2419
2167
1991
1824
1719
1653
1698
2279
3031
3553
3984
4045
3903
3582
3248
2922
2597
2355
2119
1915
1754
1648
1649
2145
2963
3703
4095
4095
4095
3890
3491
3126
2795
2497
2236
2014
1820
1681
1634
1935
2609
3125
3487
3583
3507
3348
3107
2830
2559
2339
2142
1954
1819
1717
1642
1808
2535
3609
4095
4095
4095
4095
4095
3769
3339
2999
2688
2394
2135
1936
1782
1771
2343
3287
4095
4095
4095
4095
4095
3770
3375
2998
2704
2415
2161
1947
1777
1634
2026
3059
4095
4095
4095
4095
4095
4095
4095
3810
3399
3071
2765
2448
2209
2010
2033
2549
3172
3603
3777
3774
3568
3279
2978
2690
2445
2204
2003
1845
1713
1619
1658
2164
2911
3474
3873
3964
3833
3534
3212
2886
2631
2365
2143
1921
1780
1680
1605
2013
2739
3339
3743
3944
3859
3602
3289
2977
2692
2414
2195
1968
1819
1696
1609
1840
2391
2944
3261
3404
3383
3238
3041
2817
2606
2364
2186
1970
1841
1750
1671
1840
2415
3065
3483
3751
3727
3574
3264
2962
2706
2447
2217
1999
1884
1749
1655
1698
2209
3019
3617
4095
4095
4051
3685
3313
2992
2688
2392
2160
1916
1776
1663
1616
1991
2711
3466
4095
4095
4095
3941
3568
3202
2848
2544
2305
2054
1856
1722
1615
1767
2413
3239
3922
4095
4095
4095
3723
3387
2989
2698
2403
2161
1936
1775
1662
1680
2190
2986
3636
4095
4095
4095
3762
3378
3024
2722
2406
2165
1958
1795
1679
1605
1970
2649
3230
3655
3824
3775
3570
3236
2975
2688
2429
2201
1974
1838
1696
1687
1957
2622
3287
3734
3970
3910
3673
3335
3024
2724
2445
2222
1981
1840
1713
1619
1674
2267
3085
3727
4095
4095
4095
3777
3392
3026
2704
2387
2160
1926
1781
1663
1627
2002
2695
3185
3536
3678
3600
3377
3116
2865
2596
2341
2129
1966
1824
1710
1697
2039
2770
3690
4095
4095
4095
4095
3727
3354
2971
2688
2374
2137
1917
1774
1648
1776
2453
3334
4095
4095
4095
4095
3856
3494
3136
2791
2471
2222
2013
1826
1691
1664
2106
2859
3504
3909
4095
4013
3699
3307
3015
2699
2401
2186
1969
1791
1667
1606
2032
2832
3621
4095
4095
4095
4006
3622
3255
2896
2606
2288
2059
1875
1714
1633
1814
2538
3394
4071
4095
4095
4095
3763
3362
3014
2704
2411
2173
1936
1779
1657
1648
2187
2916
3455
3763
3929
3775
3510
3184
2876
2624
2340
2106
1931
1786
1680
1638
2138
2895
3536
4076
4095
4041
3770
3382
3039
2724
2421
2187
1987
1791
1664
1605
1848
2544
3257
3920
4095
4095
3927
3583
3231
2895
2557
2302
2068
1866
1726
1654
1836
2437
3062
3473
3739
3731
3569
3281
2977
2710
2463
2224
2054
1871
1741
1639
1621
2065
2768
3272
3599
3735
3629
3425
3131
2870
2599
2357
2143
1956
1799
1698
1661
2055
2832
3600
4095
4095
4095
3971
3620
3215
2882
2598
2302
2055
1857
1726
1607
1781
2404
3198
3846
4095
4095
4066
3683
3318
2956
2653
2373
2117
1920
1749
1648
1665
2206
3059
3857
4095
4095
4095
3920
3527
3137
2816
2518
2253
2027
1833
1703
1633
2102
3030
4095
4095
4095
4095
4095
3941
3562
3194
2861
2519
2257
2017
1857
1754
1949
2669
3520
4095
4095
4095
4095
3792
3412
3022
2731
2432
2167
1957
1767
1647
1686
2161
2750
3106
3245
3280
3213
3008
2842
2622
2391
2215
2028
1889
1797
1697
1652
2081
2809
3501
3901
4095
4019
3711
3350
3037
2725
2434
2171
1968
1803
1675
1586
1862
2512
3105
3509
3709
3743
3511
3233
2975
2670
2428
2226
2017
1838
1726
1648
1814
2416
3113
3582
3832
3879
3636
3376
3045
2787
2496
2271
2064
1863
1738
1648
1668
2158
3039
3782
4095
4095
4095
3939
3534
3178
2843
2511
2275
2032
1831
1706
1603
1951
2627
3280
3722
3996
3882
3681
3351
3026
2740
2480
2211
1988
1820
1712
1661
1851
2559
3411
4095
4095
4095
4095
3724
3312
2963
2646
2333
2122
1905
1739
1654
1662
2225
3015
3683
4095
4095
4095
3777
3378
3024
2690
2425
2180
1969
1782
1663
1590
1971
2666
3152
3472
3632
3552
3349
3121
2851
2607
2365
2164
1959
1805
1712
1645
1877
2596
3481
4095
4095
4095
4095
3888
3486
3111
2786
2462
2218
2016
1829
1664
1726
2254
2916
3431
3727
3792
3654
3357
3067
2813
2516
2303
2106
1906
1779
1655
1649
2038
2717
3203
3533
3649
3568
3364
3120
2827
2559
2336
2126
1949
1797
1693
1655
1966
2714
3578
4095
4095
4095
4046
3671
3303
2951
2615
2338
2100
1894
1756
1637
1734
2361
3066
3579
3952
4012
3842
3520
3203
2879
2604
2326
2080
1889
1738
1628
1714
2448
3877
4095
4095
4095
4095
4095
4095
4030
3665
3248
2914
2593
2332
2092
1895
2228
2982
3718
4095
4095
4095
3888
3504
3159
2819
2529
2271
2000
1839
1697
1605
1902
2698
3641
4095
4095
4095
4095
3888
3494
3119
2810
2491
2219
1983
1803
1675
1677
2210
2841
3284
3542
3583
3480
3277
2999
2768
2523
2285
2087
1917
1771
1671
1646
2151
3150
4095
4095
4095
4095
4095
4002
3617
3217
2842
2559
2302
2080
1869
1682
1884
2438
2960
3300
3491
3402
3297
3095
2828
2618
2377
2169
2000
1854
1731
1686
1818
2340
3014
3505
3807
3869
3696
3386
3088
2818
2521
2288
2069
1905
1755
1661
1718
2149
2893
3443
3824
3974
3862
3554
3239
2910
2638
2358
2118
1940
1781
1679
1615
1947
2725
3455
4025
4095
4095
3906
3506
3184
2833
2522
2277
2026
1843
1706
1615
1714
2192
2672
2905
3021
3007
2912
2784
2589
2416
2238
2092
1968
1856
1778
1715
1740
2155
2796
3162
3335
3407
3317
3129
2891
2683
2446
2224
2039
1898
1801
1712
1650
1988
2627
3115
3442
3625
3536
3372
3069
2859
2559
2351
2150
1968
1808
1726
1625
1894
2659
3550
4095
4095
4095
4095
3866
3460
3111
2734
2453
2189
1970
1790
1663
1737
2275
3006
3667
4072
4095
4016
3664
3286
2947
2663
2384
2103
1915
1770
1653
1622
2089
2873
3573
4046
4095
4095
3811
3454
3058
2718
2448
2191
1995
1808
1680
1594
1904
2688
3553
4095
4095
4095
4095
3783
3365
3027
2689
2437
2152
1949
1785
1657
1767
2335
2959
3363
3630
3662
3504
3254
3012
2708
2466
2266
2020
1875
1765
1664
1719
2277
3083
3818
4095
4095
4065
3754
3350
2991
2688
2426
2145
1919
1770
1661
1582
1935
2681
3329
3835
4095
4025
3723
3427
3069
2761
2450
2199
2017
1825
1723
1606
1834
2432
2976
3318
3510
3506
3331
3119
2881
2609
2381
2173
2000
1867
1758
1671
1740
2270
3010
3696
4095
4095
3998
3663
3315
2960
2651
2373
2128
1917
1751
1654
1626
1979
2732
3311
3731
3945
3867
3657
3293
2997
2721
2436
2170
1997
1803
1703
1608
1904
2598
3294
3835
4095
4095
3846
3471
3136
2807
2525
2256
2043
1839
1717
1637
1814
2435
3189
3792
4095
4095
3856
3564
3159
2842
2587
2311
2061
1889
1744
1639
1631
2083
2831
3394
3815
3922
3920
3570
3252
2934
2672
2417
2167
1949
1802
1674
1601
1947
2609
3210
3554
3728
3639
3458
3186
2928
2636
2401
2144
1981
1817
1711
1636
1813
2523
3327
4016
4095
4095
4077
3722
3312
2981
2640
2380
2124
1915
1757
1632
1643
2162
2938
3623
4083
4095
4095
3792
3399
3046
2731
2435
2197
1967
1793
1675
1590
1984
2627
3221
3649
3815
3760
3500
3213
2931
2636
2396
2171
1997
1799
1714
1664
1913
2672
3493
4095
4095
4095
4083
3728
3315
2990
2639
2373
2143
1914
1762
1654
1731
2331
3134
3773
4095
4095
4074
3726
3328
2972
2666
2381
2113
1939
1767
1655
1584
2087
2879
3645
4095
4095
4095
3957
3604
3183
2863
2578
2263
2047
1860
1702
1639
1926
2771
3751
4095
4095
4095
4095
3907
3502
3139
2811
2503
2219
2001
1819
1719
1869
2507
3242
3824
4095
4055
3853
3478
3133
2805
2527
2287
2043
1859
1724
1640
1685
2261
3334
4095
4095
4095
4095
4095
3986
3536
3166
2833
2544
2240
2022
1838
1693
2025
2559
3005
3258
3369
3294
3140
2951
2706
2489
2258
2089
1923
1820
1742
1671
1967
2813
4095
4095
4095
4095
4095
4095
3969
3571
3200
2845
2549
2271
2035
1841
1841
2341
3045
3610
3926
3923
3755
3459
3151
2833
2544
2316
2070
1886
1758
1661
1598
2020
2621
3052
3323
3423
3342
3154
2944
2731
2493
2271
2095
1939
1806
1718
1664
1881
2480
3026
3417
3575
3610
3402
3147
2896
2642
2387
2171
2009
1850
1747
1665
1757
2256
2806
3104
3250
3272
3152
2983
2789
2597
2429
2201
2043
1884
1778
1715
1712
2257
3302
4095
4095
4095
4095
4095
4061
3728
3297
2985
2666
2353
2116
1923
1725
2028
2769
3602
4095
4095
4095
4015
3659
3264
2931
2623
2309
2081
1877
1735
1647
1761
2441
3245
3946
4095
4095
4095
3763
3347
2985
2683
2387
2160
1936
1776
1661
1648
2209
2928
3505
3937
4043
3842
3574
3200
2900
2623
2338
2104
1938
1786
1663
1619
2047
2907
3805
4095
4095
4095
4091
3750
3351
2985
2709
2401
2142
1920
1766
1664
1829
2441
3143
3633
3918
3973
3761
3453
3138
2789
2526
2259
2041
1869
1718
1643
1719
2269
3033
3677
4063
4095
4037
3722
3312
2976
2672
2379
2119
1926
1779
1647
1603
2013
2783
3316
3791
3981
3914
3613
3310
2987
2672
2400
2181
1954
1806
1680
1648
1986
2649
3198
3535
3760
3645
3455
3181
2883
2627
2368
2138
1967
1808
1723
1638
1777
2352
3027
3536
3919
3931
3722
3414
3117
2809
2546
2271
2071
1884
1752
1657
1703
2331
3344
4095
4095
4095
4095
4095
3914
3504
3138
2819
2503
2257
2022
1818
1715
1991
2623
3102
3322
3438
3374
3200
3005
2730
2514
2330
2112
1942
1826
1744
1654
1856
2443
3126
3519
3760
3797
3583
3329
3035
2736
2481
2229
2027
1857
1730
1621
1706
2261
2933
3387
3693
3779
3622
3361
3107
2802
2531
2307
2063
1907
1770
1686
1625
2041
2702
3287
3658
3805
3744
3501
3211
2925
2634
2374
2141
1966
1808
1706
1580
1904
2608
3436
4095
4095
4095
4095
3746
3319
2975
2674
2369
2137
1921
1751
1648
1762
2320
2844
3167
3324
3335
3209
3014
2789
2595
2352
2160
1975
1839
1763
1696
1706
2203
3023
3656
4095
4095
4095
3773
3376
3010
2698
2424
2176
1951
1788
1657
1606
1920
2673
3397
4015
4095
4095
3952
3583
3221
2862
2539
2285
2046
1855
1721
1650
1815
2624
3600
4095
4095
4095
4095
4016
3621
3211
2913
2609
2301
2087
1875
1730
1744
2340
3247
4095
4095
4095
4095
4048
3634
3274
2928
2606
2319
2099
1881
1717
1650
2095
2896
3687
4095
4095
4095
3953
3601
3203
2863
2559
2291
2054
1851
1714
1600
1810
2416
3051
3449
3662
3628
3472
3239
2966
2679
2416
2226
2032
1869
1744
1662
1771
2277
2909
3338
3597
3607
3431
3229
3022
2729
2480
2243
2064
1872
1772
1680
1635
2023
2733
3206
3504
3689
3607
3368
3118
2827
2581
2314
2129
1951
1802
1714
1626
1922
2646
3327
3873
4095
4095
3821
3471
3123
2807
2512
2224
2023
1835
1722
1610
1718
2192
2704
3035
3155
3184
3056
2940
2736
2534
2355
2160
1975
1879
1778
1697
1734
2257
3151
4014
4095
4095
4095
4034
3638
3254
2906
2582
2320
2088
1889
1722
1633
1923
2481
2992
3319
3504
3440
3314
3106
2819
2592
2368
2180
1978
1842
1738
1686
1877
2448
3158
3582
3840
3841
3632
3312
3056
2765
2485
2214
2035
1871
1743
1647
1741
2354
3259
4095
4095
4095
4095
3976
3633
3221
2879
2559
2318
2066
1871
1703
1631
1981
2653
3138
3480
3630
3553
3367
3099
2867
2599
2352
2129
1949
1829
1715
1648
1873
2471
3083
3498
3698
3679
3502
3243
2947
2683
2419
2202
2021
1853
1746
1647
1727
2349
3165
3825
4095
4095
4095
3728
3338
3007
2672
2394
2159
1925
1760
1647
1629
2097
2947
3749
4095
4095
4095
4021
3645
3241
2917
2622
2317
2091
1890
1735
1634
1925
2551
3103
3441
3583
3541
3374
3122
2853
2626
2378
2178
1975
1829
1727
1683
1813
2439
3165
3720
4095
4095
3904
3568
3199
2890
2609
2319
2064
1872
1748
1623
1681
2402
3425
4095
4095
4095
4095
4095
3798
3399
3085
2755
2453
2202
1972
1810
1703
2063
2827
3445
3984
4095
4061
3760
3387
3043
2734
2417
2164
1993
1802
1680
1582
1825
2465
3150
3681
4041
4054
3838
3505
3145
2823
2543
2281
2062
1891
1729
1649
1755
2247
2757
2994
3114
3093
2982
2823
2652
2480
2281
2143
1975
1846
1777
1727
1707
2096
2791
3312
3649
3815
3683
3465
3187
2889
2628
2383
2126
1956
1808
1680
1679
1950
2624
3231
3581
3751
3690
3517
3209
2944
2671
2395
2181
1987
1822
1715
1619
1757
2339
2945
3362
3602
3568
3447
3215
2972
2690
2475
2240
2021
1874
1761
1660
1695
2173
2843
3373
3627
3750
3627
3354
3103
2845
2551
2301
2102
1916
1777
1692
1641
2029
2704
3198
3607
3733
3658
3399
3144
2871
2606
2371
2129
1950
1813
1700
1637
1920
2803
4095
4095
4095
4095
4095
4095
3986
3613
3266
2935
2579
2298
2065
1883
1872
2367
3163
3857
4095
4095
4087
3799
3405
3052
2736
2443
2170
1949
1790
1663
1584
2167
3166
4095
4095
4095
4095
4095
3895
3514
3130
2804
2510
2227
2025
1831
1722
2071
2851
3792
4095
4095
4095
4095
3837
3391
3015
2714
2442
2174
1959
1776
1667
1779
2375
3147
3829
4095
4095
4081
3695
3312
2989
2688
2363
2129
1910
1760
1647
1666
2093
2775
3280
3602
3697
3603
3346
3088
2839
2559
2331
2099
1918
1799
1685
1632
1963
2615
3179
3527
3725
3600
3437
3178
2896
2630
2367
2157
1955
1815
1723
1650
1814
2384
2929
3282
3506
3469
3312
3090
2866
2627
2382
2191
1984
1865
1746
1694
1734
2225
2964
3489
3797
3903
3762
3453
3115
2873
2554
2299
2089
1922
1774
1669
1609
1937
2559
2960
3223
3311
3264
3120
2899
2694
2480
2289
2098
1936
1809
1735
1703
1930
2559
3184
3622
3877
3821
3619
3312
3014
2739
2452
2239
2016
1856
1725
1638
1744
2257
2923
3291
3517
3533
3374
3173
2930
2669
2464
2214
2035
1873
1754
1681
1719
2193
2879
3376
3634
3780
3648
3379
3106
2814
2559
2343
2102
1932
1790
1679
1616
1890
2672
3466
4095
4095
4095
4037
3657
3258
2928
2602
2352
2082
1910
1739
1629
1799
2343
2886
3194
3392
3328
3191
3010
2805
2559
2358
2166
1981
1850
1746
1699
1776
2255
2945
3430
3728
3809
3676
3401
3120
2816
2550
2294
2085
1911
1758
1666
1615
1969
2633
3169
3509
3728
3648
3415
3189
2915
2640
2390
2192
1979
1831
1716
1635
1840
2542
3363
4095
4095
4095
4059
3733
3317
2973
2675
2384
2124
1930
1755
1639
1718
2224
2973
3472
3863
3979
3857
3540
3238
2907
2609
2343
2128
1925
1781
1662
1630
2130
3211
4095
4095
4095
4095
4095
4095
3952
3600
3222
2864
2547
2279
2067
1851
1934
2352
2705
2860
2922
2877
2797
2655
2454
2317
2143
2024
1923
1829
1773
1712
1847
2479
3346
4095
4095
4095
4095
3792
3339
3027
2717
2396
2147
1943
1798
1670
1644
2090
2841
3434
3856
3998
3943
3654
3305
2956
2667
2409
2173
1959
1790
1678
1584
1872
2502
3037
3440
3631
3583
3425
3175
2896
2635
2395
2197
1990
1850
1746
1648
1788
2464
3291
3985
4095
4095
4063
3696
3312
2955
2624
2375
2107
1904
1762
1653
1629
2155
2927
3505
3941
4029
3939
3620
3231
2960
2663
2379
2155
1935
1792
1682
1617
1970
2661
3178
3554
3696
3603
3406
3162
2885
2624
2393
2175
1974
1824
1717
1653
1898
2480
3071
3491
3662
3595
3408
3191
2928
2668
2416
2182
2006
1856
1728
1659
1727
2251
2847
3255
3498
3510
3425
3178
2943
2694
2459
2241
2037
1889
1771
1676
1726
2234
3046
3911
4095
4095
4095
3968
3570
3198
2868
2559
2258
2053
1871
1713
1637
1875
2557
3157
3630
3875
3793
3568
3303
2987
2704
2458
2217
2000
1858
1719
1648
1798
2416
3099
3554
3819
3851
3652
3358
3063
2775
2513
2270
2058
1885
1746
1649
1648
2096
2731
3127
3403
3472
3355
3197
2966
2731
2481
2278
2093
1939
1795
