1845
1726
1530
1390
1305
1303
1370
1519
1712
1916
2119
2285
2386
2403
2403
2271
2096
1898
1683
1487
1329
1264
1251
1314
1447
1595
1744
1874
1970
1998
1983
1885
1724
1535
1341
1153
995
938
944
998
1139
1304
1481
1655
1779
1840
1839
1790
1658
1492
1290
1115
958
870
871
919
1037
1200
1393
1558
1698
1783
1787
1753
1660
1479
1293
1101
933
816
797
816
917
1104
1296
1504
1710
1857
1954
2039
2031
1968
1889
1810
1744
1705
1750
1856
2035
2271
2528
2819
3134
3440
3606
3664
3538
3269
2939
2652
2362
2116
1925
1808
1726
1696
1703
1714
1684
1649
1533
1393
1211
975
731
490
302
157
82
124
210
404
656
914
1186
1417
1584
1664
1718
1651
1520
1357
1196
1033
898
887
877
965
1124
1296
1472
1642
1758
1791
1822
1759
1602
1431
1250
1083
939
880
896
961
1102
1264
1470
1632
1776
1842
1870
1829
1719
1566
1369
1187
1038
949
944
987
1109
1269
1455
1633
1779
1865
1897
1887
1786
1629
1462
1280
1115
1007
989
1008
1109
1271
1449
1633
1789
1913
1937
1956
1891
1735
1566
1383
1213
1074
1049
1051
1133
1285
1456
1647
1826
1965
2023
2023
2002
1863
1712
1525
1354
1200
1125
1136
1195
1317
1479
1689
1851
1990
2087
2103
2087
1973
1822
1651
1471
1325
1206
1200
1233
1343
1504
1691
1872
2016
2141
2155
2178
2101
1939
1774
1596
1430
1315
1286
1281
1383
1535
1726
1905
2087
2223
2269
2294
2238
2095
1940
1772
1589
1455
1390
1397
1456
1606
1772
1964
2128
2274
2336
2364
2333
2222
2057
1863
1696
1535
1450
1447
1481
1618
1777
1943
2128
2285
2375
2406
2401
2297
2129
1965
1783
1614
1494
1463
1471
1573
1737
1904
2073
2239
2359
2403
2403
2321
2171
1997
1830
1649
1511
1444
1450
1526
1672
1827
2002
2167
2307
2369
2365
2322
2203
2029
1823
1654
1492
1395
1392
1427
1535
1694
1879
2032
2171
2251
2257
2242
2127
1955
1785
1584
1410
1293
1263
1280
1373
1535
1691
1866
2006
2110
2123
2129
2031
1878
1680
1509
1319
1181
1118
1130
1210
1345
1515
1689
1845
1982
2029
2026
1958
1829
1660
1472
1283
1133
1054
1066
1112
1237
1395
1591
1759
1903
1970
1995
1954
1855
1689
1489
1323
1161
1066
1057
1088
1199
1373
1535
1729
1883
1984
2015
2016
1930
1766
1593
1403
1231
1104
1082
1090
1178
1339
1524
1703
1876
2000
2032
2065
1987
1856
1695
1499
1328
1193
1118
1138
1181
1330
1488
1680
1840
1983
2046
2064
2018
1901
1743
1559
1375
1222
1136
1136
1168
1291
1466
1648
1826
1978
2080
2100
2096
2000
1837
1661
1472
1303
1194
1175
1175
1283
1443
1622
1805
1949
2079
2096
2118
2033
1878
1714
1524
1347
1209
1161
1163
1232
1394
1563
1734
1911
2046
2117
2123
2084
1938
1781
1598
1409
1260
1190
1175
1232
1358
1520
1715
1872
2021
2112
2135
2111
2003
1830
1656
1472
1313
1217
1200
1223
1320
1495
1676
1856
2003
2115
2115
2143
2037
1888
1726
1521
1353
1223
1199
1182
1278
1427
1610
1786
1953
2087
2143
2158
2091
1951
1787
1607
1407
1264
1187
1199
1250
1392
1535
1745
1904
2064
2126
2141
2112
2003
1838
1667
1461
1305
1218
1190
1234
1339
1502
1681
1857
2006
2103
2119
2126
2020
1853
1695
1505
1334
1209
1183
1199
1302
1456
1635
1808
1968
2092
2145
2155
2067
1919
1744
1570
1384
1239
1180
1191
1265
1406
1568
1744
1918
2055
2113
2118
2085
1968
1804
1610
1429
1280
1207
1205
1258
1377
1535
1744
1914
2054
2150
2175
2161
2065
1898
1725
1535
1369
1264
1241
1255
1359
1522
1691
1872
2031
2153
2179
2214
2126
1985
1808
1643
1471
1342
1280
1311
1405
1552
1735
1919
2096
2229
2288
2287
2227
2090
1924
1734
1535
1379
1307
1298
1344
1461
1630
1811
1981
2130
2206
2225
2185
2071
1911
1722
1535
1377
1278
1264
1296
1405
1568
1742
1918
2062
2157
2183
2183
2071
1907
1732
1535
1350
1227
1206
1199
1291
1441
1616
1792
1965
2094
2113
2145
2082
1936
1761
1582
1398
1245
1179
1200
1266
1397
1569
1767
1926
2065
2129
2151
2110
1978
1824
1630
1444
1286
1196
1175
1227
1355
1520
1691
1875
2027
2128
2153
2151
2032
1872
1702
1518
1351
1238
1212
1225
1318
1477
1659
1840
1996
2115
2154
2169
2096
1930
1761
1584
1398
1252
1217
1215
1287
1429
1616
1786
1954
2096
2155
2160
2110
1974
1801
1618
1433
1281
1209
1207
1255
1365
1534
1731
1904
2045
2130
2145
2123
2009
1852
1666
1469
1305
1213
1186
1212
1328
1497
1680
1865
2009
2128
2151
2176
2087
1919
1759
1561
1392
1254
1222
1216
1293
1441
1633
1799
1967
2098
2150
2172
2106
1962
1791
1602
1411
1270
1198
1200
1253
1386
1558
1764
1937
2096
2181
2224
2225
2147
2053
1914
1806
1734
1734
1809
1936
2156
2416
2714
3087
3490
3795
3826
3902
3885
3776
3613
3312
3065
2870
2771
2710
2736
2783
2857
2908
2925
2869
2707
2510
2216
1859
1504
1145
811
564
417
375
416
581
781
1017
1277
1504
1654
1745
1792
1732
1623
1478
1360
1229
1165
1183
1228
1365
1535
1742
1896
2047
2131
2154
2145
2027
1851
1679
1484
1313
1205
1188
1201
1302
1467
1648
1827
1995
2110
2143
2163
2067
1916
1739
1561
1379
1246
1180
1210
1298
1455
1631
1811
1983
2119
2181
2183
2134
1991
1830
1661
1454
1305
1232
1241
1293
1424
1590
1788
1963
2114
2195
2212
2187
2094
1919
1732
1535
1383
1282
1269
1301
1420
1600
1771
1951
2107
2203
2235
2238
2155
1990
1820
1639
1456
1339
1317
1317
1405
1571
1749
1920
2097
2219
2256
2294
2234
2090
1920
1738
1563
1418
1348
1366
1424
1583
1747
1948
2107
2263
2337
2349
2321
2202
2033
1856
1677
1511
1424
1407
1456
1584
1756
1931
2117
2277
2381
2406
2407
2302
2134
1973
1792
1635
1518
1484
1511
1616
1789
1963
2157
2315
2444
2492
2501
2433
2274
2111
1919
1739
1609
1556
1535
1626
1774
1935
2122
2293
2438
2510
2523
2463
2341
2172
1984
1797
1643
1552
1535
1584
1713
1869
2064
2235
2384
2471
2496
2467
2368
2196
2015
1821
1659
1535
1515
1531
1655
1807
1969
2155
2307
2417
2422
2448
2349
2186
2010
1825
1641
1498
1472
1456
1554
1690
1869
2035
2206
2327
2375
2383
2309
2157
1963
1776
1575
1417
1328
1319
1367
1501
1649
1836
1990
2125
2191
2195
2160
2033
1865
1665
1465
1296
1185
1163
1185
1292
1451
1635
1807
1949
2045
2073
2065
1959
1793
1616
1415
1232
1107
1072
1076
1173
1323
1499
1680
1839
1966
2007
2019
1945
1793
1616
1425
1241
1102
1053
1059
1125
1266
1430
1619
1787
1935
1998
2005
1965
1840
1679
1461
1287
1136
1045
1044
1102
1216
1378
1586
1751
1904
2000
2009
2005
1901
1744
1554
1357
1199
1086
1060
1085
1193
1358
1533
1721
1875
1990
2026
2034
1949
1798
1625
1434
1249
1120
1050
1069
1162
1306
1482
1671
1836
1969
2030
2039
2000
1860
1695
1505
1313
1158
1094
1090
1143
1280
1455
1647
1821
1968
2061
2083
2032
1923
1767
1561
1375
1213
1108
1088
1114
1233
1397
1584
1774
1925
2031
2062
2066
1962
1814
1627
1439
1268
1136
1118
1109
1203
1355
1535
1713
1882
2014
2039
2069
2002
1842
1669
1478
1298
1139
1076
1079
1145
1274
1455
1655
1815
1962
2021
2039
1999
1872
1716
1503
1321
1162
1069
1040
1093
1209
1376
1556
1742
1895
1989
2009
2003
1903
1743
1566
1361
1194
1076
1043
1060
1154
1306
1482
1678
1828
1952
1976
2000
1923
1762
1589
1397
1216
1073
1023
1009
1093
1232
1408
1584
1759
1904
1965
1967
1920
1798
1632
1425
1250
1095
1013
1009
1059
1187
1349
1535
1717
1867
1957
1980
1940
1844
1671
1488
1291
1120
1014
987
1008
1114
1278
1456
1643
1803
1914
1933
1962
1869
1712
1520
1338
1157
1020
981
973
1057
1202
1389
1571
1733
1872
1922
1939
1876
1733
1575
1376
1191
1041
965
974
1008
1152
1315
1514
1687
1837
1906
1936
1899
1789
1638
1440
1259
1101
984
962
999
1107
1280
1462
1648
1799
1899
1917
1919
1823
1666
1498
1296
1134
1008
976
989
1104
1261
1446
1629
1799
1927
1985
2005
1938
1798
1631
1455
1264
1117
1055
1058
1135
1260
1419
1611
1774
1909
1971
1968
1936
1813
1648
1430
1280
1118
1020
1007
1061
1177
1331
1527
1696
1836
1918
1931
1917
1811
1648
1478
1276
1106
987
971
978
1083
1233
1408
1591
1755
1869
1891
1915
1818
1668
1488
1296
1106
970
914
917
1008
1161
1335
1509
1689
1825
1875
1894
1842
1726
1552
1359
1179
1019
944
944
1007
1136
1296
1499
1677
1819
1904
1926
1887
1779
1622
1415
1249
1086
970
957
976
1102
1271
1434
1616
1775
1882
1905
1914
1824
1653
1486
1298
1131
996
978
971
1069
1230
1406
1585
1744
1874
1903
1946
1876
1731
1535
1367
1184
1040
967
979
1040
1178
1341
1535
1699
1851
1918
1936
1889
1775
1618
1418
1250
1082
985
972
1011
1134
1295
1477
1667
1809
1919
1946
1945
1831
1669
1504
1307
1141
1015
976
990
1103
1251
1429
1611
1776
1894
1930
1956
1885
1741
1566
1385
1208
1059
1019
995
1071
1217
1377
1565
1735
1862
1930
1930
1889
1786
1623
1461
1303
1187
1153
1216
1334
1535
1794
2082
2355
2623
2847
3030
3152
3126
3010
2875
2743
2629
2557
2559
2612
2731
2896
3087
3280
3429
3482
3333
3182
2860
2500
2165
1805
1439
1114
880
682
618
624
695
809
941
1074
1152
1215
1216
1152
1055
960
847
771
764
819
919
1088
1269
1488
1678
1825
1907
1925
1902
1775
1626
1431
1247
1075
974
954
972
1095
1265
1425
1617
1763
1872
1904
1903
1809
1653
1482
1299
1134
999
965
976
1075
1215
1408
1582
1747
1867
1930
1926
1869
1717
1535
1379
1191
1060
992
1005
1079
1219
1377
1566
1731
1882
1943
1963
1911
1782
1638
1429
1266
1111
1033
1018
1073
1195
1364
1565
1727
1872
1959
1985
1977
1877
1717
1535
1365
1200
1085
1072
1083
1185
1349
1523
1711
1869
1981
2015
2034
1967
1821
1648
1471
1296
1163
1104
1125
1211
1355
1520
1701
1868
2005
2083
2096
2037
1914
1766
1584
1405
1257
1188
1190
1246
1378
1534
1728
1902
2042
2132
2155
2129
2023
1875
1680
1517
1365
1266
1248
1271
1390
1535
1727
1907
2064
2177
2203
2219
2136
1984
1823
1643
1472
1344
1331
1313
1409
1574
1731
1904
2080
2202
2259
2282
2207
2066
1903
1729
1535
1396
1339
1344
1387
1533
1680
1879
2037
2180
2262
2279
2228
2118
1958
1760
1594
1426
1339
1319
1359
1466
1631
1797
1968
2115
2206
2237
2229
2135
1952
1792
1593
1424
1298
1270
1277
1367
1518
1673
1840
1999
2109
2131
2151
2054
1893
1715
1520
1328
1175
1144
1114
1168
1307
1455
1621
1786
1907
1950
1961
1898
1755
1585
1381
1203
1023
935
915
963
1072
1215
1396
1564
1695
1774
1787
1766
1642
1478
1282
1104
932
814
777
785
886
1031
1199
1358
1505
1612
1618
1645
1535
1392
1219
1023
864
720
682
672
764
903
1071
1250
1404
1535
1585
1604
1535
1413
1242
1081
891
741
684
682
742
851
1018
1216
1389
1526
1602
1629
1600
1477
1341
1151
965
821
715
707
751
863
1008
1196
1373
1523
1625
1659
1662
1564
1406
1232
1058
891
778
749
752
853
1008
1173
1349
1519
1647
1711
1709
1642
1488
1328
1166
978
845
790
790
866
1008
1168
1348
1517
1665
1734
1744
1697
1582
1419
1219
1067
911
826
822
863
983
1152
1347
1506
1659
1744
1776
1765
1654
1488
1318
1136
969
862
837
858
958
1120
1290
1468
1631
1760
1779
1797
1719
1585
1402
1223
1055
922
849
866
946
1102
1261
1438
1611
1744
1805
1805
1754
1634
1472
1297
1114
961
897
889
939
1070
1231
1420
1585
1730
1813
1825
1804
1689
1522
1324
1177
1003
899
895
914
1015
1197
1363
1535
1703
1806
1835
1842
1762
1611
1440
1253
1088
962
949
926
1017
1165
1343
1509
1678
1802
1850
1857
1789
1654
1488
1313
1136
992
931
929
986
1131
1291
1472
1631
1777
1840
1858
1829
1710
1559
1370
1214
1050
965
945
983
1093
1264
1445
1616
1758
1850
1873
1873
1776
1616
1446
1253
1091
961
939
955
1070
1212
1383
1566
1715
1841
1872
1899
1825
1678
1502
1340
1157
1036
986
976
1060
1198
1357
1535
1710
1841
1902
1917
1877
1746
1593
1392
1229
1072
991
980
1037
1151
1308
1501
1671
1823
1905
1930
1919
1823
1664
1497
1306
1151
1055
1040
1053
1162
1322
1494
1674
1820
1934
1950
1975
1877
1744
1569
1394
1217
1093
1057
1075
1168
1320
1500
1690
1861
2000
2059
2079
2029
1907
1746
1566
1392
1241
1179
1171
1232
1342
1503
1683
1850
1981
2056
2065
2027
1919
1767
1589
1394
1251
1154
1120
1159
1264
1424
1595
1761
1904
1995
2027
2013
1935
1774
1606
1415
1239
1126
1084
1091
1184
1332
1498
1664
1814
1936
1977
1975
1901
1766
1597
1424
1239
1104
1042
1050
1104
1247
1410
1593
1755
1888
1942
1957
1923
1808
1646
1453
1293
1141
1050
1042
1090
1210
1369
1563
1728
1867
1955
1981
1968
1866
1709
1527
1341
1182
1074
1056
1063
1170
1317
1494
1675
1835
1941
1973
1993
1904
1771
1600
1408
1238
1104
1038
1050
1136
1282
1451
1623
1792
1914
1980
1982
1940
1818
1654
1472
1297
1153
1081
1073
1132
1248
1407
1600
1768
1901
1968
2006
1968
1861
1707
1511
1344
1198
1091
1077
1099
1200
1369
1529
1712
1851
1965
1977
1991
1903
1758
1584
1405
1241
1113
1101
1087
1164
1327
1488
1662
1808
1938
1985
1987
1923
1791
1638
1447
1281
1133
1072
1089
1133
1268
1423
1616
1763
1904
1975
1978
1955
1834
1702
1515
1358
1227
1167
1197
1280
1450
1680
1936
2203
2457
2669
2821
2974
2981
2897
2832
2718
2624
2591
2624
2695
2841
3071
3344
3630
3803
3827
3757
3671
3354
2967
2608
2269
1934
1611
1371
1150
1033
979
983
1023
1112
1169
1218
1220
1204
1136
1047
922
832
765
747
811
912
1091
1280
1518
1686
1853
1935
1958
1941
1852
1681
1511
1328
1162
1053
1023
1044
1149
1296
1469
1645
1795
1901
1931
1947
1857
1723
1559
1381
1207
1087
1040
1051
1137
1279
1446
1634
1792
1917
1975
1985
1931
1804
1640
1473
1295
1148
1091
1095
1152
1271
1439
1622
1793
1934
2005
2013
1997
1883
1747
1563
1390
1232
1142
1129
1159
1270
1429
1615
1789
1932
2032
2061
2066
1981
1830
1665
1488
1309
1199
1168
1184
1274
1435
1605
1776
1937
2061
2106
2128
2071
1919
1758
1597
1413
1280
1231
1232
1299
1451
1611
1794
1958
2103
2175
2187
2155
2039
1894
1705
1535
1391
1301
1296
1346
1462
1633
1808
1979
2126
2214
2245
2238
2147
1989
1825
1651
1503
1395
1392
1408
1505
1674
1849
2017
2176
2295
2336
2352
2261
2126
1963
1788
1626
1488
1442
1455
1524
1675
1847
2013
2183
2325
2390
2402
2352
2224
2078
1904
1725
1587
1509
1503
1558
1680
1826
2010
2181
2327
2416
2438
2406
2304
2138
1952
1777
1631
1519
1505
1533
1641
1791
1963
2133
2284
2399
2413
2430
2331
2171
2000
1820
1650
1521
1505
1466
1568
1697
1860
2017
2175
2290
2348
2350
2282
2134
1964
1782
1598
1441
1387
1376
1418
1535
1709
1877
2018
2151
2205
2213
2174
2035
1872
1679
1498
1345
1238
1219
1252
1344
1509
1679
1838
1980
2064
2096
2078
1980
1813
1648
1454
1287
1161
1113
1136
1212
1375
1529
1707
1847
1958
1987
2011
1925
1798
1620
1452
1269
1136
1104
1083
1145
1284
1455
1619
1799
1932
1981
1991
1962
1836
1670
1471
1319
1153
1079
1072
1113
1226
1386
1585
1744
1878
1967
1981
1968
1873
1712
1535
1351
1199
1091
1074
1104
1200
1360
1535
1710
1866
1973
2005
2006
1930
1783
1618
1437
1264
1147
1094
1111
1195
1337
1518
1694
1846
1978
2022
2039
1991
1856
1702
1527
1343
1199
1125
1131
1181
1297
1469
1651
1812
1953
2029
2047
2018
1903
1754
1584
1394
1246
1143
1131
1168
1290
1442
1621
1794
1939
2033
2064
2047
1966
1808
1648
1462
1291
1177
1150
1153
1243
1407
1573
1744
1904
2017
2064
2087
2014
1871
1712
1529
1353
1216
1163
1167
1221
1359
1520
1707
1868
2003
2064
2085
2033
1908
1765
1571
1394
1243
1167
1163
1197
1309
1473
1662
1827
1968
2060
2086
2078
1967
1808
1645
1456
1296
1190
1167
1186
1274
1427
1607
1776
1925
2030
2075
2086
1986
1853
1673
1498
1319
1198
1135
1142
1232
1365
1535
1715
1874
2005
2078
2065
2025
1899
1741
1562
1387
1235
1162
1157
1214
1343
1491
1680
1853
1986
2074
2095
2062
1958
1793
1603
1435
1271
1170
1150
1177
1283
1456
1623
1793
1951
2057
2069
2091
1997
1846
1678
1494
1323
1203
1195
1168
1263
1418
1585
1758
1918
2045
2103
2120
2047
1909
1745
1561
1384
1235
1170
1185
1253
1364
1535
1739
1888
2029
2096
2112
2091
1959
1804
1616
1437
1294
1200
1172
1225
1335
1490
1669
1840
1989
2087
2097
2098
2001
1849
1679
1490
1332
1217
1190
1207
1313
1470
1646
1821
1975
2107
2137
2147
2071
1927
1759
1585
1402
1275
1223
1231
1296
1452
1611
1782
1959
2107
2173
2189
2139
2030
1879
1689
1526
1380
1296
1299
1359
1486
1658
1858
2029
2179
2267
2288
2256
2149
1988
1811
1622
1459
1346
1324
1344
1453
1606
1776
1951
2103
2214
2240
2253
2161
2000
1828
1648
1461
1325
1267
1283
1370
1518
1683
1867
2023
2147
2211
2199
2160
2006
1840
1657
1467
1317
1243
1242
1297
1438
1600
1779
1942
2096
2160
2187
2139
2032
1870
1693
1503
1349
1258
1245
1281
1396
1580
1745
1923
2075
2165
2196
2205
2106
1947
1766
1584
1424
1294
1273
1280
1383
1535
1712
1885
2055
2177
2207
2233
2147
2012
1837
1655
1481
1340
1285
1296
1373
1505
1677
1859
2026
2167
2238
2245
2205
2082
1914
1721
1554
1397
1320
1318
1355
1477
1637
1841
2000
2151
2243
2270
2258
2150
1971
1809
1621
1446
1329
1309
1328
1431
1599
1773
1959
2119
2231
2273
2283
2195
2042
1876
1695
1517
1376
1328
1344
1429
1587
1749
1919
2103
2225
2287
2294
2243
2107
1936
1755
1582
1423
1347
1345
1411
1535
1701
1892
2067
2215
2297
2329
2288
2181
1995
1808
1644
1471
1369
1369
1390
1500
1683
1856
2043
2222
2339
2381
2437
2391
2294
2177
2069
1984
1966
2064
2149
2355
2639
2989
3442
3828
3845
3824
3870
3899
3911
3931
3824
3600
3357
3231
3133
3083
3113
3136
3184
3165
3088
2893
2650
2377
2062
1712
1343
1023
772
624
582
624
763
995
1243
1498
1738
1903
2005
2060
2000
1885
1751
1587
1433
1337
1309
1328
1438
1603
1784
1957
2112
2240
2274
2275
2198
2039
1867
1675
1498
1346
1298
1309
1375
1516
1701
1873
2054
2192
2258
2271
2227
2085
1929
1733
1562
1391
1317
1298
1363
1487
1658
1858
2018
2164
2261
2273
2259
2159
1987
1819
1626
1467
1360
1328
1365
1472
1648
1814
1998
2163
2269
2309
2320
2230
2083
1889
1717
1523
1406
1347
1377
1467
1637
1803
1983
2155
2288
2347
2357
2291
2149
1973
1792
1610
1465
1390
1394
1455
1599
1757
1943
2126
2277
2355
2384
2358
2231
2082
1890
1711
1567
1460
1458
1487
1616
1776
1962
2158
2312
2415
2443
2446
2349
2189
2006
1814
1648
1534
1515
1520
1633
1793
1964
2155
2318
2458
2511
2542
2455
2294
2128
1946
1766
1619
1578
1593
1660
1808
1973
2168
2352
2501
2559
2592
2547
2410
2243
2043
1870
1710
1618
1618
1674
1792
1958
2159
2333
2491
2593
2617
2608
2480
2304
2128
1929
1767
1648
1616
1641
1747
1907
2069
2256
2414
2541
2583
2581
2483
2313
2138
1939
1769
1627
1567
1584
1657
1811
1983
2165
2347
2483
2543
2553
2492
2342
2173
1972
1770
1616
1534
1521
1577
1686
1846
2023
2187
2339
2411
2429
2384
2258
2080
1861
1692
1502
1397
1370
1389
1491
1658
1813
1991
2139
2231
2230
2235
2128
1952
1775
1569
1389
1243
1227
1200
1281
1428
1614
1789
1947
2064
2112
2118
2031
1887
1712
1510
1314
1168
1098
1106
1170
1296
1470
1673
1838
1975
2047
2056
2007
1879
1722
1497
1328
1155
1058
1040
1083
1201
1362
1552
1731
1874
1969
1984
1969
1873
1699
1515
1329
1158
1046
1019
1039
1137
1296
1483
1674
1834
1955
1994
2000
1919
1760
1589
1392
1207
1071
1015
1014
1104
1242
1414
1609
1779
1919
1985
1995
1936
1796
1643
1426
1255
1097
1013
1009
1071
1191
1373
1579
1746
1899
1994
1997
1986
1874
1699
1509
1322
1150
1057
1032
1050
1165
1332
1507
1701
1847
1968
1998
2000
1912
1763
1567
1371
1206
1064
1002
1018
1125
1282
1461
1647
1817
1941
2000
2017
1954
1806
1629
1454
1264
1111
1031
1038
1099
1238
1414
1611
1789
1931
2003
2025
1984
1868
1695
1494
1325
1152
1053
1040
1073
1187
1351
1531
1713
1869
1971
1993
1995
1904
1734
1535
1357
1179
1063
1040
1031
1136
1293
1476
1650
1819
1939
1975
1998
1916
1765
1600
1403
1218
1075
1021
1023
1098
1251
1413
1611
1778
1923
1989
1997
1955
1826
1655
1456
1263
1101
1004
994
1056
1168
1340
1523
1700
1846
1933
1949
1939
1831
1661
1483
1283
1124
999
992
999
1120
1285
1466
1649
1801
1920
1953
1959
1872
1712
1520
1334
1151
1004
959
963
1060
1206
1377
1567
1738
1872
1926
1915
1881
1731
1566
1363
1178
1014
942
954
995
1135
1311
1506
1683
1840
1933
1947
1919
1808
1635
1427
1250
1089
975
961
977
1104
1274
1443
1633
1793
1899
1904
1920
1827
1677
1483
1302
1132
1006
989
976
1089
1232
1424
1613
1778
1904
1951
1958
1902
1745
1576
1381
1198
1051
978
995
1064
1197
1373
1589
1744
1904
1971
1987
1953
1840
1686
1498
1325
1182
1091
1080
1140
1268
1457
1649
1837
1991
2087
2112
2112
1993
1819
1633
1438
1250
1123
1093
1099
1205
1353
1535
1723
1886
2002
2037
2062
1973
1817
1642
1442
1260
1104
1049
1059
1127
1264
1425
1607
1783
1921
1984
1986
1937
1808
1645
1429
1246
1088
1013
1002
1054
1178
1355
1562
1728
1873
1955
1986
1962
1855
1675
1498
1302
1145
1031
1010
1040
1141
1314
1485
1679
1840
1949
1973
1993
1906
1751
1566
1378
1196
1071
1009
1036
1126
1265
1457
1633
1805
1933
1987
1987
1936
1792
1626
1443
1246
1107
1023
1040
1094
1232
1408
1609
1776
1935
2006
2031
1989
1872
1711
1525
1340
1171
1072
1065
1091
1214
1379
1574
1755
1906
2020
2055
2038
1936
1788
1615
1418
1241
1111
1103
1094
1200
1360
1535
1728
1890
2018
2047
2091
2005
1844
1669
1484
1296
1152
1098
1098
1168
1315
1486
1691
1855
2007
2066
2088
2032
1918
1744
1535
1360
1203
1135
1129
1170
1302
1472
1671
1847
2001
2096
2130
2110
2002
1840
1648
1461
1289
1168
1152
1171
1279
1451
1647
1831
2001
2151
2213
2256
2217
2112
2003
1900
1808
1765
1805
1922
2128
2384
2687
3057
3533
3850
3829
3813
3871
3857
3774
3531
3251
3001
2832
2747
2702
2719
2751
2795
2795
2753
2631
2424
2178
1872
1518
1169
866
613
450
403
435
590
816
1074
1335
1587
1778
1867
1968
1930
1817
1680
1515
1355
1238
1231
1228
1328
1491
1680
1857
2035
2171
2225
2245
2170
2032
1851
1666
1485
1344
1275
1296
1366
1504
1680
1888
2062
2208
2287
2307
2271
2153
1984
1775
1600
1429
1334
1321
1376
1490
1678
1855
2047
2192
2304
2330
2321
2219
2047
1862
1667
1489
1367
1337
1359
1467
1634
1824
2010
2191
2316
2365
2370
2292
2124
1947
1755
1559
1410
1363
1361
1453
1602
1781
1967
2139
2302
2355
2381
2331
2199
2013
1822
1633
1470
1392
1392
1434
1573
1744
1947
2126
2272
2379
2398
2383
2277
2103
1907
1719
1535
1438
1424
1440
1567
1743
1915
2107
2274
2400
2438
2449
2352
2205
2019
1831
1650
1516
1456
1490
1589
1749
1925
2128
2304
2447
2510
2523
2467
2316
2156
1957
1775
1614
1535
1552
1629
1761
1931
2129
2320
2480
2559
2597
2558
2420
2258
2064
1872
1712
1616
1599
1634
1753
1921
2100
2288
2453
2559
2610
2602
2490
2314
2141
1936
1767
1638
1607
1600
1709
1861
2039
2224
2397
2540
2587
2607
2515
2350
2159
1968
1776
1626
1552
1569
1625
1766
1936
2131
2301
2445
2515
2533
2480
2342
2173
1959
1773
1591
1503
1479
1527
1641
1806
1983
2155
2299
2395
2407
2382
2267
2071
1883
1680
1487
1356
1319
1326
1425
1593
1763
1936
2093
2198
2215
2224
2119
1954
1755
1570
1370
1215
1147
1161
1235
1388
1553
1739
1903
2032
2093
2093
2037
1895
1713
1514
1323
1168
1079
1072
1123
1251
1426
1616
1793
1939
2027
2037
1998
1880
1705
1488
1307
1130
1022
998
1023
1148
1309
1501
1689
1843
1957
1978
1999
1902
1722
1554
1344
1173
1041
1021
1004
1114
1274
1454
1649
1822
1966
2010
2021
1952
1808
1617
1430
1238
1082
1010
1011
1082
1225
1410
1616
1787
1933
2006
2031
1972
1856
1678
1465
1283
1115
1023
1007
1056
1175
1360
1555
1745
1899
1991
2015
2008
1904
1728
1553
1344
1166
1043
1009
1030
1135
1303
1498
1690
1861
1978
2027
2036
1948
1790
1612
1409
1222
1072
1011
1015
1104
1254
1426
1616
1793
1949
2007
2017
1977
1837
1664
1455
1283
1114
1033
1021
1071
1200
1378
1600
1762
1913
2009
2031
2007
1904
1726
1521
1328
1154
1042
1015
1042
1159
1330
1520
1715
1874
1988
2018
2032
1934
1760
1581
1377
1200
1057
994
1019
1104
1267
1456
1648
1821
1949
2007
2017
1954
1813
1638
1438
1245
1086
1011
1010
1075
1201
1382
1586
1770
1916
2000
2014
1974
1847
1682
1469
1284
1119
1008
997
1035
1148
1325
1513
1711
1860
1959
1989
1982
1874
1707
1516
1315
1136
1008
986
977
1098
1265
1456
1648
1822
1955
1997
2022
1938
1791
1601
1395
1213
1052
993
991
1072
1223
1399
1606
1782
1925
2005
2015
1965
1840
1658
1460
1270
1101
1008
980
1035
1157
1328
1523
1718
1871
1975
1994
1978
1875
1707
1520
1329
1152
1039
1008
1037
1152
1322
1510
1699
1870
1995
2033
2041
1941
1794
1614
1399
1213
1072
1006
1038
1119
1274
1466
1664
1839
1987
2063
2072
2023
1904
1728
1527
1344
1195
1124
1126
1200
1351
1527
1733
1920
2080
2160
2178
2140
2018
1834
1625
1430
1248
1136
1107
1137
1249
1425
1615
1808
1967
2093
2091
2119
2008
1841
1650
1439
1262
1118
1101
1089
1193
1338
1526
1715
1891
2016
2069
2071
2003
1841
1659
1456
1255
1088
1034
1031
1089
1233
1408
1627
1799
1939
2032
2039
1987
1879
1711
1488
1311
1134
1049
1022
1072
1204
1375
1563
1749
1910
2003
2029
2022
1908
1737
1535
1355
1168
1042
1017
1021
1140
1312
1509
1703
1872
1999
2045
2064
1968
1811
1619
1427
1233
1086
1034
1046
1127
1279
1460
1657
1841
1984
2055
2064
1998
1872
1697
1466
1302
1139
1057
1059
1109
1251
1423
1641
1808
1959
2039
2063
2041
1920
1741
1554
1349
1169
1062
1041
1072
1185
1364
1555
1746
1910
2030
2069
2081
1978
1809
1635
1437
1248
1105
1033
1055
1149
1325
1501
1704
1873
2015
2081
2086
2025
1885
1697
1508
1301
1151
1078
1083
1146
1283
1468
1677
1858
2002
2092
2116
2071
1935
1762
1552
1360
1189
1072
1072
1119
1238
1424
1639
1861
2047
2205
2282
2345
2320
2226
2128
2031
1954
1935
2007
2118
2333
2609
2956
3405
3815
3826
3777
3856
3863
3835
3601
3280
2957
2689
2518
2406
2321
2311
2317
2328
2304
2233
2098
1917
1687
1398
1111
816
579
400
321
346
454
650
912
1189
1470
1712
1873
1966
1993
1917
1765
1595
1392
1231
1104
1083
1095
1219
1373
1570
1759
1921
2043
2086
2096
1995
1833
1647
1438
1247
1104
1058
1056
1151
1310
1498
1702
1878
2037
2105
2114
2064
1919
1744
1535
1343
1189
1110
1101
1152
1299
1474
1680
1867
2026
2115
2142
2101
1985
1809
1621
1419
1250
1140
1131
1153
1278
1473
1658
1843
2018
2128
2153
2161
2071
1901
1709
1509
1328
1189
1166
1167
1269
1433
1635
1834
2007
2160
2211
2221
2154
2003
1812
1626
1423
1258
1200
1200
1267
1421
1600
1811
1985
2146
2224
2238
2218
2096
1918
1714
1517
1360
1269
1253
1309
1425
1617
1806
2003
2163
2272
2304
2308
2194
2019
1833
1633
1449
1331
1309
1332
1441
1621
1815
2017
2198
2343
2391
2402
2311
2158
1970
1779
1591
1435
1375
1392
1477
1648
1829
2035
2231
2387
2477
2477
2439
2307
2122
1905
1731
1561
1459
1457
1515
1655
1827
2042
2214
2381
2481
2503
2480
2357
2185
1990
1789
1601
1477
1453
1485
1607
1786
1964
2161
2335
2459
2496
2510
2406
2233
2032
1835
1643
1505
1436
1455
1553
1713
1888
2089
2262
2402
2462
2463
2400
2241
2055
1840
1629
1461
1379
1366
1416
1573
1728
1920
2103
2253
2332
2342
2293
2148
1966
1753
1555
1360
1237
1215
1235
1347
1519
1710
1877
2032
2147
2151
2159
2032
1851
1659
1451
1263
1116
1084
1085
1184
1344
1530
1726
1894
2030
2046
2074
1984
1811
1629
1423
1217
1068
990
1008
1074
1219
1403
1614
1797
1943
2018
2022
1982
1839
1666
1453
1254
1077
989
976
1031
1152
1328
1526
1728
1883
1988
2019
1999
1887
1707
1516
1315
1138
1011
970
1003
1117
1296
1487
1681
1851
1977
2018
2029
1936
1773
1574
1380
1181
1023
982
976
1078
1245
1421
1627
1808
1961
2022
2028
1975
1840
1648
1440
1244
1077
982
977
1055
1194
1365
1577
1773
1917
2009
2035
2011
1892
1700
1491
1296
1122
1003
994
1023
1138
1328
1525
1718
1891
2000
2001
2032
1927
1758
1571
1344
1168
1020
995
992
1098
1264
1447
1654
1830
1968
2030
2029
1958
1813
1618
1424
1215
1058
978
987
1057
1211
1397
1613
1797
1951
2030
2035
1999
1869
1689
1473
1275
1104
987
983
1039
1159
1353
1535
1739
1906
2000
2031
2027
1907
1723
1526
1328
1137
1008
976
993
1111
1276
1477
1680
1852
1974
2034
2053
1957
1785
1597
1389
1196
1040
975
978
1071
1223
1408
1611
1791
1938
2013
2026
1979
1824
1648
1424
1234
1072
976
969
1009
1143
1337
1535
1738
1885
1991
2001
1973
1872
1680
1482
1265
1090
975
944
976
1102
1280
1470
1679
1852
1968
2005
2007
1911
1744
1535
1344
1153
1004
938
962
1066
1233
1424
1621
1796
1936
1998
2000
1933
1786
1595
1392
1191
1011
950
953
1019
1168
1353
1566
1764
1925
2002
2029
1997
1872
1706
1475
1278
1113
998
984
1011
1153
1343
1535
1742
1898
2011
2043
2033
1931
1754
1558
1354
1162
1037
1004
1014
1125
1305
1505
1714
1904
2043
2090
2117
2047
1903
1714
1520
1326
1169
1107
1113
1200
1335
1517
1723
1905
2059
2126
2121
2066
1920
1732
1518
1309
1139
1047
1051
1090
1229
1408
1619
1812
1968
2071
2090
2064
1941
1753
1535
1331
1151
1006
983
988
1113
1286
1479
1683
1849
1977
2017
2030
1923
1754
1552
1355
1161
1003
951
949
1035
1213
1391
1589
1782
1931
1993
1989
1939
1792
1612
1398
1199
1040
955
944
1008
1159
1328
1535
1731
1894
1987
2011
1970
1851
1661
1459
1265
1077
963
944
977
1111
1293
1485
1692
1855
1978
1981
2009
1891
1729
1525
1327
1136
989
960
953
1056
1219
1414
1616
1799
1940
1997
2007
1933
1790
1589
1383
1194
1038
958
970
1033
1181
1373
1586
1758
1911
1994
2003
1953
1822
1648
1434
1230
1061
948
942
989
1123
1323
1520
1718
1887
1991
2019
2018
1901
1712
1527
1312
1132
995
959
981
1089
1274
1473
1678
1849
1989
2037
2058
1958
1801
1603
1395
1203
1047
989
989
1082
1233
1424
1631
1826
1971
2034
2046
2002
1858
1694
1463
1298
1143
1090
1114
1227
1424
1667
1968
2230
2507
2719
2896
3015
2982
2869
2747
2606
2503
2448
2483
2559
2736
2985
3263
3597
3794
3802
3728
3635
3265
2865
2470
2113
1758
1427
1181
1001
914
906
960
1047
1154
1259
1310
1333
1298
1202
1086
944
814
726
720
781
899
1093
1302
1534
1750
1920
2010
2035
2009
1887
1695
1474
1277
1101
979
963
997
1110
1301
1497
1698
1870
1974
2010
1999
1905
1728
1534
1328
1143
1009
976
986
1099
1278
1479
1687
1869
2004
2047
2083
1987
1827
1645
1430
1238
1073
1010
1034
1107
1258
1449
1661
1840
2000
2069
2093
2039
1904
1732
1510
1324
1147
1068
1065
1113
1239
1427
1642
1840
2000
2115
2131
2115
1999
1819
1633
1426
1242
1119
1104
1130
1249
1433
1621
1825
1998
2132
2177
2181
2100
1935
1731
1526
1330
1188
1139
1152
1243
1418
1610
1808
2000
2154
2222
2226
2170
2015
1847
1637
1447
1275
1187
1197
1257
1406
1598
1807
2000
2177
2260
2301
2272
2161
1969
1761
1578
1392
1283
1275
1311
1443
1621
1820
2025
2202
2336
2330
2378
2267
2093
1904
1695
1518
1380
1365
1357
1475
1645
1837
2042
2226
2378
2448
2453
2365
2218
2025
1813
1609
1437
1374
1381
1438
1609
1783
1996
2186
2350
2423
2439
2391
2256
2081
1856
1660
1486
1377
1356
1408
1523
1713
1913
2110
2273
2373
2416
2393
2278
2086
1893
1674
1488
1360
1321
1332
1445
1633
1803
2010
2179
2318
2355
2359
2261
2091
1871
1669
1460
1297
1230
1221
1291
1449
1645
1827
1999
2158
2209
2215
2150
1994
1815
1583
1383
1211
1111
1101
1156
1289
1459
1686
1840
2000
2094
2093
2066
1934
1746
1535
1323
1132
999
975
1006
1134
1302
1488
1688
1857
1979
2000
2014
1911
1731
1535
1334
1133
979
913
941
1055
1216
1411
1610
1792
1937
1995
2005
1938
1777
1583
1371
1173
999
922
925
988
1147
1327
1535
1741
1891
1972
2003
1954
1815
1639
1426
1232
1050
944
926
971
1104
1283
1491
1697
1872
1991
2009
2013
1903
1730
1517
1314
1125
992
960
962
1074
1263
1459
1667
1840
1983
2030
2061
1967
1808
1606
1392
1196
1041
974
976
1056
1200
1395
1607
1793
1951
2014
2022
1978
1842
1658
1450
1245
1072
981
976
1023
1171
1361
1570
1769
1933
2022
2045
2029
1906
1712
1518
1311
1117
988
960
989
1104
1281
1482
1691
1862
1999
2030
2057
1951
1791
1600
1387
1182
1019
973
991
1091
1253
1438
1637
1835
1982
2046
2061
1995
1850
1649
1447
1239
1074
976
981
1041
1191
1364
1589
1775
1938
2033
2059
2021
1899
1712
1507
1296
1123
1011
992
1018
1159
1345
1535
1753
1919
2033
2061
2069
1951
1778
1579
1363
1168
1017
1008
985
1097
1267
1473
1676
1858
1995
2066
2065
1994
1830
1641
1424
1234
1071
995
1003
1072
1236
1424
1643
1827
1982
2075
2087
2032
1901
1718
1495
1293
1123
1014
999
1055
1185
1369
1577
1780
1950
2059
2076
2061
1946
1771
1558
1350
1157
1023
990
1008
1145
1328
1519
1726
1919
2059
2114
2119
2033
1869
1673
1471
1263
1102
1042
1061
1142
1314
1501
1703
1899
2063
2124
2128
2073
1929
1744
1521
1327
1154
1059
1059
1136
1282
1477
1713
1888
2064
2179
2210
2192
2078
1891
1707
1487
1311
1195
1174
1198
1311
1489
1680
1872
2038
2162
2180
2182
2074
1888
1685
1483
1284
1142
1080
1106
1201
1361
1567
1763
1951
2095
2145
2144
2068
1904
1711
1488
1284
1106
1030
1023
1091
1241
1421
1625
1815
1981
2057
2070
2030
1905
1712
1489
1301
1122
1012
990
1040
1168
1357
1562
1770
1936
2064
2096
2089
1974
1806
1607
1391
1201
1059
1040
1045
1153
1332
1530
1738
1910
2064
2096
2112
2030
1857
1649
1445
1248
1088
1013
1021
1093
1261
1459
1673
1866
2023
2100
2112
2064
1925
1742
1520
1321
1144
1041
1040
1094
1228
1409
1629
1826
1988
2085
2112
2096
1979
1792
1596
1371
1189
1045
1019
1046
1179
1353
1557
1760
1935
2070
2106
2113
2019
1846
1652
1435
1237
1088
1050
1040
1136
1307
1494
1709
1891
2054
2113
2123
2073
1926
1728
1510
1301
1138
1055
1051
1111
1265
1453
1663
1855
2019
2112
2139
2094
1968
1778
1585
1364
1183
1073
1054
1088
1202
1389
1597
1798
1962
2083
2096
2128
2020
1852
1664
1482
1319
1215
1233
1295
1481
1735
2010
2315
2626
2935
3183
3366
3408
3307
3123
2926
2742
2610
2559
2580
2651
2816
3017
3279
3497
3643
3613
3443
3139
2752
2370
1981
1601
1227
929
735
640
653
738
881
1071
1247
1392
1466
1508
1456
1347
1227
1085
953
883
889
946
1089
1305
1520
1728
1919
2057
2123
2126
2010
1849
1648
1439
1224
1066
992
1008
1088
1255
1451
1662
1847
2003
2087
2084
2037
1890
1701
1469
1280
1111
1014
1013
1088
1225
1414
1648
1831
1990
2096
2117
2097
1969
1786
1587
1371
1199
1077
1045
1079
1209
1389
1600
1801
1969
2103
2134
2147
2032
1861
1664
1453
1255
1119
1051
1079
1177
1354
1559
1759
1942
2098
2160
2170
2113
1952
1776
1563
1351
1200
1120
1121
1203
1344
1535
1757
1945
2112
2195
2215
2175
2043
1863
1651
1449
1277
1170
1168
1214
1343
1533
1738
1946
2120
2242
2275
2271
2169
1983
1786
1583
1392
1251
1230
1232
1343
1520
1726
1923
2114
2257
2295
2324
2240
2085
1893
1677
1483
1331
1270
1284
1362
1531
1727
1951
2142
2311
2387
2426
2372
2240
2058
1845
1642
1473
1381
1376
1424
1563
1765
1959
2159
2329
2446
2470
2445
2333
2134
1927
1732
1535
1408
1392
1407
1535
1717
1911
2123
2291
2432
2474
2469
2369
2189
1981
1789
1584
1426
1376
1366
1467
1635
1824
2024
2226
2381
2444
2431
2370
2224
2021
1803
1608
1424
1338
1328
1391
1533
1713
1915
2099
2257
2343
2349
2304
2172
1979
1766
1535
1356
1237
1216
1245
1365
1535
1735
1919
2089
2202
2206
2224
2100
1903
1703
1475
1280
1127
1101
1073
1182
1338
1529
1718
1901
2026
2090
2080
1984
1835
1625
1409
1201
1035
950
955
1035
1190
1369
1595
1773
1920
1999
2000
1939
1801
1622
1396
1198
1008
912
891
946
1089
1276
1485
1691
1845
1965
1990
1979
1858
1652
1456
1237
1056
917
880
898
1008
1194
1404
1602
1789
1918
1971
1967
1883
1712
1514
1298
1103
945
882
896
976
1153
1339
1535
1751
1907
1971
1993
1938
1795
1600
1386
1186
1015
933
915
980
1123
1309
1535
1713
1875
1977
1990
1980
1852
1663
1456
1257
1072
941
917
954
1084
1266
1462
1669
1841
1970
2001
2007
1904
1744
1535
1330
1136
976
918
943
1063
1227
1424
1627
1821
1967
2017
2021
1947
1788
1601
1388
1181
1011
928
939
1013
1171
1349
1566
1758
1931
2015
2036
1990
1856
1663
1447
1255
1070
954
943
981
1115
1297
1498
1698
1869
1983
2013
2000
1893
1712
1507
1296
1103
960
934
944
1046
1243
1442
1639
1825
1959
1999
2022
1934
1776
1571
1371
1161
1001
937
960
1039
1197
1373
1603
1792
1946
2025
2038
1989
1840
1647
1427
1219
1045
943
941
978
1123
1310
1511
1723
1874
1981
2009
1983
1866
1668
1467
1263
1079
943
922
944
1072
1247
1438
1646
1824
1951
1988
2002
1904
1730
1529
1329
1136
978
939
944
1042
1224
1418
1623
1814
1971
2033
2043
1986
1834
1642
1430
1230
1070
981
978
1042
1197
1382
1605
1795
1953
2053
2077
2042
1921
1744
1535
1331
1168
1061
1046
1088
1228
1431
1629
1835
2005
2134
2154
2175
2059
1868
1674
1447
1263
1111
1079
1059
1158
1326
1526
1722
1904
2053
2106
2114
2030
1875
1682
1469
1260
1088
1011
1013
1085
1244
1411
1635
1809
1958
2039
2040
1987
1862
1671
1442
1238
1063
954
935
987
1108
1312
1503
1697
1855
1969
1983
1970
1855
1677
1472
1265
1086
949
930
948
1064
1249
1449
1653
1839
1973
2021
2018
1925
1762
1566
1360
1155
995
942
943
1040
1202
1391
1593
1776
1936
2000
2007
1958
1821
1626
1401
1214
1040
946
944
1008
1151
1339
1562
1741
1895
1999
2018
1994
1860
1686
1473
1281
1091
973
953
974
1102
1290
1490
1693
1872
1999
2019
2030
1936
1755
1561
1344
1155
999
941
959
1072
1230
1418
1619
1815
1957
2011
2025
1959
1813
1619
1408
1202
1043
966
973
1052
1200
1377
1600
1785
1945
2034
2064
2006
1875
1701
1474
1280
1100
991
976
1014
1148
1331
1533
1733
1899
2015
2039
2032
1915
1734
1527
1316
1136
978
961
961
1074
1263
1474
1684
1880
2062
2139
2225
2187
2100
1983
1871
1775
1717
1751
1858
2029
2268
2547
2921
3328
3750
3792
3810
3843
3674
3389
3011
2710
2459
2271
2161
2093
2092
2116
2162
2187
2154
2065
1901
1706
1408
1106
811
535
334
201
205
257
445
697
976
1280
1535
1754
1858
1922
1872
1722
1561
1371
1178
1031
976
989
1089
1244
1436
1639
1836
1982
2047
2045
2000
1847
1662
1455
1247
1074
992
994
1050
1211
1383
1600
1791
1950
2055
2066
2030
1919
1734
1520
1319
1151
1034
1018
1050
1187
1361
1571
1762
1936
2061
2064
2096
1984
1809
1619
1407
1219
1079
1057
1040
1161
1328
1521
1725
1909
2053
2106
2121
2045
1884
1707
1495
1286
1137
1067
1088
1153
1312
1488
1715
1905
2066
2142
2153
2119
1989
1803
1594
1394
1222
1122
1104
1159
1287
1483
1691
1894
2063
2170
2197
2199
2088
1904
1717
1505
1334
1210
1172
1202
1315
1502
1705
1898
2087
2221
2273
2287
2189
2022
1839
1644
1439
1283
1221
1239
1337
1503
1695
1909
2111
2275
2351
2368
2307
2175
1997
1771
1595
1423
1340
1329
1391
1552
1729
1938
2125
2288
2394
2420
2401
2277
2087
1901
1690
1515
1398
1387
1403
1529
1713
1905
2107
2288
2411
2451
2466
2355
2174
1968
1763
1568
1409
1350
1361
1469
1643
1831
2031
2217
2368
2426
2435
2384
2218
2030
1827
1614
1456
1363
1377
1438
1588
1776
1973
2175
2332
2421
2437
2385
2249
2061
1829
1616
1442
1312
1302
1328
1446
1623
1814
2000
2167
2277
2292
2288
2169
1971
1775
1535
1347
1213
1173
1163
1266
1431
1630
1811
1983
2115
2134
2149
2067
1891
1692
1474
1264
1104
1022
1023
1091
1245
1427
1639
1815
1955
2026
2039
1984
1831
1654
1431
1223
1040
935
933
976
1109
1293
1503
1701
1859
1957
1982
1965
1845
1667
1457
1243
1067
937
907
932
1054
1232
1427
1625
1807
1931
1970
1982
1885
1715
1513
1307
1113
951
898
903
992
1175
1371
1575
1770
1926
1991
2006
1941
1801
1609
1378
1182
1008
925
922
992
1127
1323
1523
1722
1885
1983
2003
1978
1852
1670
1450
1253
1086
970
944
977
1109
1296
1502
1700
1873
1986
1999
2019
1913
1728
1532
1313
1136
978
961
957
1067
1249
1442
1649
1835
1987
2032
2053
1977
1823
1630
1410
1206
1044
970
976
1058
1191
1382
1600
1782
1936
2009
2021
1982
1844
1667
1434
1244
1072
970
947
1008
1140
1328
1525
1735
1895
1993
2013
2005
1889
1714
1511
1297
1127
983
955
971
1093
1274
1477
1683
1865
1986
2037
2056
1953
1792
1599
1381
1188
1033
971
976
1061
1233
1422
1621
1811
1964
2021
2033
1971
1827
1650
1424
1231
1056
967
961
1008
1150
1343
1552
1747
1904
1999
2023
2002
1876
1691
1481
1268
1088
959
944
976
1104
1290
1489
1697
1872
2000
2034
2035
1947
1777
1585
1367
1178
1023
963
990
1088
1270
1461
1668
1847
2002
2064
2071
1995
1846
1660
1452
1246
1088
997
1008
1086
1233
1426
1648
1846
2015
2101
2131
2106
1973
1803
1593
1391
1215
1111
1099
1137
1262
1445
1645
1836
1993
2096
2122
2107
1997
1808
1616
1393
1215
1073
1043
1041
1157
1325
1518
1712
1882
2026
2045
2067
1979
1797
1607
1397
1187
1023
957
976
1054
1205
1390
1608
1792
1949
2018
2032
1970
1841
1650
1422
1223
1043
944
934
987
1142
1339
1535
1735
1898
1997
2025
1991
1871
1686
1479
1273
1088
954
926
962
1082
1263
1463
1666
1835
1970
1998
2005
1905
1739
1525
1327
1130
976
911
939
1040
1219
1405
1616
1807
1955
2019
2016
1967
1808
1629
1409
1213
1036
944
945
1011
1165
1353
1569
1751
1917
2003
2036
2000
1871
1680
1469
1274
1091
971
955
988
1136
1324
1518
1726
1891
2012
2011
2034
1932
1759
1558
1344
1152
1002
982
976
1088
1260
1458
1666
1853
1993
2055
2064
1980
1824
1626
1415
1209
1034
961
971
1046
1202
1391
1617
1808
1965
2042
2074
2027
1877
1705
1487
1283
1100
990
973
1022
1153
1344
1534
1733
1895
1993
2017
2010
1905
1742
1570
1394
1252
1184
1228
1328
1535
1809
2115
2428
2751
3094
3326
3535
3548
3389
3184
2945
2743
2605
2525
2530
2559
2709
2882
3056
3219
3289
3200
2983
2714
2373
1994
1575
1179
817
574
425
381
438
587
793
999
1204
1370
1460
1511
1471
1372
1246
1090
965
889
913
966
1107
1307
1522
1731
1907
2020
2070
2071
1963
1781
1583
1366
1168
1019
944
972
1088
1264
1445
1648
1840
1989
2047
2063
1997
1837
1648
1440
1230
1074
993
1008
1079
1236
1423
1645
1833
1996
2079
2102
2047
1919
1733
1519
1309
1133
1033
1013
1061
1182
1367
1584
1780
1957
2070
2091
2093
1968
1799
1606
1391
1200
1072
1040
1066
1184
1360
1570
1769
1963
2107
2132
2166
2071
1909
1716
1511
1309
1152
1088
1104
1198
1359
1535
1771
1959
2112
2204
2218
2153
2019
1835
1623
1414
1242
1149
1136
1201
1330
1534
1747
1941
2125
2224
2261
2242
2111
1926
1727
1516
1342
1221
1202
1232
1349
1535
1744
1950
2128
2266
2306
2325
2223
2043
1856
1651
1458
1314
1264
1285
1382
1567
1757
1967
2158
2311
2384
2397
2329
2185
1997
1789
1584
1411
1328
1344
1403
1561
1746
1953
2158
2314
2420
2438
2409
2279
2077
1872
1664
1487
1371
1359
1386
1523
1707
1905
2107
2281
2393
2417
2431
2315
2128
1936
1717
1528
1387
1373
1359
1465
1647
1838
2034
2219
2353
2414
2414
2326
2159
1967
1759
1535
1376
1299
1303
1379
1535
1712
1922
2114
2265
2337
2342
2292
2143
1942
1725
1508
1327
1217
1191
1232
1347
1522
1728
1919
2077
2160
2179
2154
2032
1829
1637
1418
1219
1083
1039
1063
1168
1339
1535
1727
1894
2022
2058
2068
1959
1788
1584
1360
1153
995
957
937
1023
1182
1386
1581
1776
1933
2000
2011
1939
1783
1601
1360
1175
991
900
898
961
1111
1287
1517
1702
1863
1961
1973
1961
1818
1636
1425
1215
1039
906
892
918
1053
1245
1441
1644
1821
1938
1971
1986
1873
1702
1499
1296
1088
945
887
906
1030
1189
1397
1611
1788
1936
1991
1995
1925
1755
1563
1343
1137
975
905
912
978
1143
1324
1535
1743
1893
1977
2000
1962
1826
1641
1432
1216
1040
928
917
966
1095
1282
1486
1690
1863
1968
1986
1995
1875
1692
1488
1273
1088
946
917
940
1061
1239
1443
1648
1827
1968
2020
2023
1922
1769
1555
1357
1151
995
931
942
1037
1191
1393
1606
1798
1962
2032
2035
1982
1840
1659
1417
1226
1042
958
944
1001
1141
1328
1564
1745
1907
2019
2037
2006
1893
1691
1498
1283
1098
976
957
971
1104
1282
1488
1702
1873
2000
2031
2032
1936
1746
1559
1344
1142
979
912
938
1044
1227
1414
1622
1808
1957
2011
2003
1962
1799
1606
1403
1188
1031
943
951
1012
1165
1364
1587
1783
1951
2029
2065
2021
1894
1701
1468
1274
1098
982
963
1008
1142
1342
1535
1750
1918
2039
2066
2066
1951
1781
1574
1369
1181
1042
1040
1038
1153
1344
1555
1773
1956
2103
2178
2178
2090
1917
1726
1502
1297
1129
1053
1070
1133
1290
1469
1684
1874
2031
2106
2114
2059
1920
1731
1508
1303
1117
1010
1003
1050
1177
1376
1573
1764
1931
2036
2062
2032
1917
1729
1511
1296
1113
971
943
961
1088
1264
1457
1659
1840
1968
2000
2013
1913
1747
1535
1328
1127
967
929
922
1023
1202
1394
1609
1806
1957
2032
2029
1970
1826
1623
1408
1201
1034
935
943
996
1159
1338
1556
1747
1906
2001
2017
1975
1857
1662
1462
1247
1070
946
926
968
1102
1281
1487
1703
1872
1997
2020
2014
1914
1741
1527
1326
1122
980
939
948
1069
1242
1446
1659
1849
1995
2055
2056
1969
1809
1616
1409
1200
1034
967
970
1039
1198
1392
1613
1806
1967
2046
2071
2015
1881
1686
1472
1257
1088
974
959
1003
1151
1347
1535
1756
1920
2042
2061
2039
1927
1745
1535
1325
1129
992
967
982
1106
1286
1488
1696
1875
2010
2083
2074
1962
1794
1599
1369
1167
1002
941
941
1023
1200
1396
1634
1836
2015
2128
2189
2185
2099
1981
1849
1735
1667
1686
1779
1936
2173
2477
2857
3280
3738
3793
3771
3839
3823
3568
3279
2928
2657
2448
2322
2242
2246
2282
2319
2354
2341
2269
2099
1923
1648
1327
989
688
442
272
223
275
423
656
935
1227
1499
1743
1872
1935
1919
1792
1631
1423
1241
1083
1002
1008
1079
1234
1423
1631
1820
1983
2066
2096
2028
1890
1712
1488
1287
1104
993
975
1013
1162
1344
1554
1755
1933
2045
2075
2081
1962
1780
1584
1373
1174
1040
1033
1015
1136
1328
1523
1733
1920
2064
2123
2122
2041
1871
1680
1459
1264
1094
1023
1057
1132
1296
1487
1709
1891
2064
2130
2143
2094
1950
1766
1535
1341
1177
1082
1078
1131
1278
1467
1683
1882
2053
2165
2178
2157
2035
1844
1651
1433
1246
1123
1100
1136
1253
1453
1647
1857
2037
2169
2221
2227
2129
1951
1765
1555
1345
1187
1163
1149
1247
1429
1631
1840
2034
2202
2272
2285
2243
2095
1894
1695
1486
1324
1250
1247
1311
1460
1653
1877
2071
2236
2339
2352
2322
2197
2011
1803
1602
1424
1312
1297
1328
1463
1666
1870
2077
2247
2381
2399
2416
2314
2115
1924
1711
1519
1377
1345
1345
1457
1641
1826
2033
2225
2369
2442
2449
2364
2191
2000
1791
1585
1412
1338
1358
1436
1584
1773
1987
2166
2335
2411
2417
2382
2229
2032
1833
1627
1438
1339
1326
1377
1515
1703
1895
2096
2256
2380
2391
2371
2245
2054
1840
1631
1423
1287
1250
1264
1378
1558
1759
1949
2125
2253
2295
2288
2191
2003
1799
1581
1360
1200
1134
1122
1200
1355
1535
1741
1915
2075
2138
2125
2069
1910
1712
1466
1262
1088
990
982
1040
1173
1355
1587
1761
1920
2009
2022
1992
1872
1672
1462
1250
1061
932
911
931
1070
1237
1444
1653
1824
1945
1969
1984
1870
1685
1488
1265
1083
925
863
897
990
1168
1379
1585
1773
1918
1982
1982
1911
1750
1565
1342
1139
977
887
903
967
1131
1328
1535
1744
1902
1989
2007
1965
1823
1635
1407
1210
1038
915
912
959
1088
1296
1488
1707
1872
1999
2011
2002
1884
1718
1494
1296
1094
955
928
928
1061
1239
1435
1642
1827
1967
2005
2033
1936
1766
1579
1360
1153
977
923
942
1008
1178
1374
1589
1769
1935
2003
2015
1954
1824
1627
1406
1211
1041
935
929
994
1136
1328
1535
1740
1901
2010
2032
2003
1875
1689
1474
1278
1091
957
934
958
1088
1271
1480
1679
1859
1986
2027
2031
1917
1744
1561
1338
1136
976
913
951
1054
1225
1424
1632
1821
1967
2021
2029
1958
1810
1619
1405
1185
1011
929
939
1012
1152
1353
1568
1760
1929
2011
2032
1990
1863
1679
1439
1254
1067
959
944
971
1113
1295
1505
1709
1883
2000
2015
2022
1919
1735
1535
1328
1130
992
970
966
1087
1259
1468
1674
1863
2003
2064
2074
1999
1838
1645
1428
1214
1055
978
994
1072
1235
1429
1652
1839
2010
2102
2123
2087
1945
1775
1552
1370
1198
1098
1084
1136
1269
1445
1649
1846
1996
2105
2112
2096
1966
1776
1569
1350
1158
1034
1007
1018
1145
1328
1525
1731
1901
2025
2061
2070
1966
1791
1584
1349
1146
993
953
943
1041
1199
1392
1600
1789
1949
2007
2011
1945
1791
1596
1360
1170
998
897
899
959
1111
1296
1520
1717
1879
1969
1990
1973
1842
1652
1434
1225
1044
937
915
943
1071
1266
1463
1679
1857
1978
2015
2009
1904
1728
1526
1313
1113
967
908
935
1034
1222
1424
1625
1812
1958
2011
2019
1936
1779
1589
1379
1173
1005
925
933
1006
1158
1358
1571
1766
1925
1998
2016
1967
1840
1647
1424
1221
1041
938
921
987
1123
1319
1523
1734
1904
2011
2041
2017
1914
1719
1520
1299
1109
971
949
960
1086
1280
1469
1679
1860
2000
2047
2046
1955
1793
1590
1381
1179
1007
946
959
1049
1218
1408
1628
1826
1985
2055
2063
1996
1855
1669
1430
1239
1065
961
947
1013
1152
1346
1562
1750
1904
2000
2015
1996
1872
1681
1485
1293
1135
1050
1077
1174
1369
1635
1915
2218
2496
2778
2951
3113
3091
2980
2819
2668
2524
2420
2390
2454
2558
2746
2983
3220
3453
3581
3539
3331
3022
2640
2262
1898
1518
1161
883
718
631
657
734
895
1056
1216
1325
1388
1395
1334
1216
1049
929
819
767
803
881
1054
1283
1501
1729
1905
2032
2069
2066
1943
1770
1563
1344
1152
999
982
987
1107
1271
1484
1688
1872
2010
2076
2081
1979
1823
1628
1415
1223
1063
1002
1011
1093
1269
1456
1678
1857
2015
2096
2110
2038
1904
1719
1499
1306
1134
1040
1038
1087
1232
1425
1631
1838
1998
2103
2119
2107
1979
1799
1585
1367
1187
1069
1043
1072
1209
1395
1606
1809
1986
2122
2160
2179
2080
1900
1694
1487
1282
1136
1101
1099
1200
1386
1574
1787
1979
2135
2211
2214
2153
2003
1808
1589
1391
1226
1136
1140
1216
1358
1563
1776
1971
2147
2231
2253
2221
2096
1909
1712
1495
1325
1211
1201
1238
1381
1584
1781
1986
2162
2288
2315
2333
2213
2027
1842
1633
1445
1302
1274
1281
1403
1578
1777
1984
2176
2327
2378
2385
2320
2159
1956
1748
1535
1379
1321
1334
1413
1571
1754
1977
2166
2334
2428
2433
2386
2239
2061
1836
1638
1460
1354
1349
1393
1535
1731
1931
2134
2298
2410
2433
2432
2301
2111
1915
1708
1510
1377
1349
1376
1490
1679
1870
2067
2259
2390
2453
2438
2337
2165
1941
1740
1535
1371
1296
1318
1392
1569
1744
1941
2139
2288
2351
2347
2270
2123
1917
1686
1477
1294
1202
1187
1239
1372
1574
1785
1951
2112
2194
2208
2167
2026
1826
1610
1396
1201
1074
1059
1076
1198
1375
1574
1775
1936
2064
2084
2077
1967
1775
1582
1353
1158
1004
939
960
1061
1239
1424
1627
1817
1958
2000
2001
1918
1760
1552
1344
1131
965
885
891
967
1136
1327
1535
1744
1895
1982
2006
1953
1821
1627
1395
1200
1016
912
896
944
1086
1280
1488
1695
1859
1970
1996
1984
1866
1689
1472
1264
1081
935
917
922
1059
1230
1445
1650
1838
1969
2000
2028
1927
1762
1565
1347
1153
998
923
947
1040
1201
1394
1616
1806
1952
2034
2033
1979
1835
1649
1418
1223
1041
944
941
995
1151
1345
1535
1747
1914
2018
2039
2014
1888
1694
1483
1280
1087
960
949
966
1108
1289
1492
1701
1875
2000
2032
2035
1925
1760
1552
1344
1137
990
927
960
1061
1237
1434
1643
1829
1978
2032
2027
1968
1805
1611
1405
1188
1017
945
944
1017
1173
1362
1587
1782
1939
2029
2047
2016
1879
1688
1457
1260
1074
960
955
997
1138
1323
1525
1726
1898
2003
2017
2016
1906
1717
1514
1303
1110
958
943
946
1059
1245
1452
1659
1844
1990
2031
2046
1951
1787
1584
1366
1157
997
920
939
1008
1169
1374
1606
1785
1951
2022
2031
1991
1853
1677
1449
1242
1073
969
958
1022
1166
1370
1582
1777
1945
2058
2069
2057
1921
1735
1533
1309
1119
983
954
985
1123
1307
1531
1735
1930
2068
2109
2137
2047
1874
1695
1493
1298
1163
1120
1121
1206
1371
1567
1758
1937
2094
2138
2128
2064
1907
1719
1487
1280
1110
1033
1022
1101
1253
1439
1658
1831
1989
2086
2085
2064
1919
1724
1516
1297
1103
987
964
1001
1126
1300
1507
1718
1884
1988
2023
2023
1911
1728
1522
1309
1111
974
919
933
1046
1228
1434
1643
1824
1968
2027
2016
1951
1780
1585
1370
1166
1003
923
939
1014
1174
1374
1589
1776
1939
2020
2030
1983
1837
1651
1440
1221
1051
944
932
976
1124
1324
1521
1725
1888
1993
2029
2014
1904
1710
1505
1289
1099
967
937
958
1085
1267
1476
1674
1856
1987
2037
2034
1950
1781
1577
1368
1162
1008
946
960
1057
1229
1420
1639
1825
1986
2061
2057
1997
1846
1664
1427
1239
1074
977
986
1040
1195
1389
1618
1805
1968
2061
2096
2071
1941
1744
1535
1325
1148
1023
999
1042
1166
1347
1558
1762
1938
2060
2085
2095
1983
1792
1594
1381
1179
1036
961
980
1099
1263
1458
1667
1854
1990
2064
2064
1982
1840
1662
1452
1264
1134
1094
1150
1281
1505
1776
2080
2372
2656
2886
3084
3152
3088
2934
2746
2598
2474
2407
2432
2496
2643
2859
3114
3367
3568
3636
3483
3291
2903
2498
2134
1745
1371
1039
833
658
631
696
809
954
1115
1266
1355
1398
1365
1277
1149
1008
887
790
789
871
987
1195
1408
1647
1847
2005
2087
2102
2059
1911
1723
1488
1293
1111
1008
999
1065
1210
1408
1609
1811
1968
2081
2098
2079
1936
1748
1553
1338
1164
1041
1023
1051
1188
1366
1582
1777
1953
2094
2128
2128
2030
1847
1646
1451
1246
1090
1062
1067
1167
1339
1535
1739
1936
2081
2144
2141
2093
1936
1745
1522
1329
1165
1083
1099
1168
1326
1501
1730
1915
2086
2175
2192
2150
2019
1835
1627
1413
1249
1129
1119
1163
1310
1489
1706
1905
2081
2199
2215
2240
2127
1936
1739
1535
1346
1206
1200
1194
1319
1488
1706
1906
2089
2240
2290
2289
2215
2047
1863
1653
1439
1285
1227
1234
1319
1475
1679
1902
2092
2247
2335
2353
2301
2174
1986
1773
1579
1412
1312
1309
1361
1510
1709
1909
2108
2282
2384
2413
2415
2278
2096
1904
1691
1503
1387
1345
1379
1502
1677
1887
2089
2271
2413
2457
2462
2375
2194
1998
1797
1590
1442
1383
1399
1494
1665
1846
2047
2250
2411
2476
2474
2416
2256
2065
1835
1647
1467
1377
1385
1449
1591
1772
1990
2181
2343
2437
2455
2414
2288
2086
1886
1673
1486
1370
1345
1385
1503
1680
1888
2081
2247
2364
2384
2383
2259
2070
1855
1643
1431
1280
1206
1227
1326
1488
1671
1866
2036
2185
2230
2224
2159
1989
1778
1557
1342
1169
1088
1088
1158
1298
1477
1680
1859
2003
2093
2108
2032
1888
1701
1488
1271
1093
981
975
1011
1151
1340
1535
1740
1904
2000
2020
2003
1894
1701
1493
1280
1091
963
925
943
1069
1245
1447
1654
1827
1966
1993
2011
1919
1747
1535
1331
1136
971
917
929
1031
1186
1380
1595
1790
1936
2006
2011
1965
1819
1631
1415
1216
1045
959
951
1015
1166
1360
1585
1767
1927
2031
2060
2023
1903
1702
1505
1292
1104
979
967
987
1123
1311
1510
1717
1887
2000
2043
2047
1945
1762
1568
1350
1153
1008
951
973
1078
1248
1444
1662
1851
2000
2061
2064
1997
1837
1649
1440
1231
1062
989
995
1067
1213
1408
1623
1813
1973
2061
2091
2039
1897
1713
1482
1282
1108
1001
993
1040
1165
1360
1557
1760
1921
2032
2061
2057
1936
1763
1555
1333
1155
1013
1006
1007
1123
1304
1499
1703
1875
2019
2064
2070
1978
1812
1619
1405
1200
1045
987
997
1088
1239
1442
1661
1851
2000
2071
2083
2023
1877
1687
1463
1264
1087
986
965
1035
1177
1364
1573
1766
1933
2032
2060
2043
1914
1723
1525
1309
1139
1008
976
1011
1152
1331
1535
1747
1918
2062
2082
2096
1999
1812
1612
1408
1214
1059
1019
1018
1121
1296
1491
1699
1898
2037
2112
2105
2039
1878
1701
1485
1287
1124
1042
1046
1111
1279
1474
1699
1902
2074
2176
2197
2161
2038
1841
1646
1433
1251
1137
1104
1136
1253
1439
1630
1829
1998
2110
2125
2134
2015
1836
1639
1418
1227
1088
1040
1053
1149
1316
1511
1706
1873
2011
2061
2062
1978
1805
1615
1394
1185
1021
957
969
1040
1180
1378
1605
1781
1931
2006
2015
1968
1827
1630
1401
1203
1023
923
911
972
1104
1303
1501
1712
1872
1973
2001
1985
1876
1695
1485
1280
1096
977
944
960
1097
1265
1475
1680
1865
2000
2037
2061
1955
1781
1584
1366
1183
1023
965
976
1087
1246
1443
1645
1840
2003
2074
2079
2022
1865
1680
1443
1260
1083
999
995
1067
1206
1397
1643
1811
1973
2078
2087
2071
1947
1751
1535
1334
1151
1038
1013
1062
1185
1376
1584
1785
1953
2081
2111
2124
2003
1826
1616
1399
1212
1076
1018
1040
1161
1331
1535
1754
1941
2098
2163
2163
2098
1927
1734
1521
1321
1151
1082
1093
1166
1322
1514
1727
1922
2090
2177
2191
2140
2001
1808
1587
1370
1187
1073
1066
1101
1235
1424
1642
1852
2023
2151
2197
2215
2138
1998
1862
1712
1611
1563
1623
1734
1936
2224
2522
2883
3329
3744
3747
3814
3839
3705
3420
3122
2847
2619
2501
2448
2446
2510
2601
2702
2753
2752
2624
2421
2167
1815
1447
1072
722
445
288
240
288
456
695
969
1255
1505
1703
1810
1863
1823
1687
1521
1358
1193
1091
1079
1121
1252
1449
1648
1856
2031
2158
2192
2195
2094
1911
1691
1490
1291
1143
1086
1104
1219
1387
1593
1795
1988
2144
2198
2209
2149
1969
1785
1578
1360
1197
1118
1126
1200
1360
1554
1780
1975
2148
2228
2257
2211
2083
1879
1655
1456
1270
1153
1152
1181
1308
1509
1719
1921
2095
2224
2240
2243
2133
1947
1745
1529
1344
1193
1185
1187
1296
1485
1693
1903
2091
2229
2287
2294
2205
2032
1834
1626
1417
1259
1197
1206
1286
1458
1654
1887
2078
2246
2321
2339
2293
2149
1968
1744
1530
1355
1264
1249
1311
1461
1655
1872
2078
2256
2357
2390
2370
2250
2054
1861
1653
1457
1350
1315
1360
1481
1677
1873
2091
2269
2402
2458
2463
2378
2192
1995
1791
1595
1440
1405
1414
1507
1687
1887
2096
2306
2462
2540
2544
2475
2320
2127
1906
1695
1529
1437
1442
1514
1669
1852
2076
2277
2448
2553
2559
2532
2397
2197
1975
1770
1584
1467
1453
1481
1616
1808
2007
2210
2390
2521
2547
2555
2437
2238
2020
1808
1622
1457
1417
1442
1552
1722
1934
2130
2323
2458
2523
2516
2434
2251
2054
1826
1607
1438
1361
1360
1456
1601
1782
1999
2191
2347
2416
2418
2356
2214
2000
1776
1552
1360
1243
1223
1264
1399
1588
1777
1981
2149
2253
2259
2246
2111
1909
1711
1473
1271
1136
1094
1101
1221
1409
1600
1792
1971
2104
2162
2138
2042
1849
1642
1426
1218
1057
987
999
1089
1250
1456
1664
1848
2007
2063
2070
1997
1843
1648
1413
1216
1040
947
944
1009
1166
1366
1603
1779
1938
2033
2063
2018
1890
1698
1486
1270
1077
946
934
961
1112
1293
1506
1712
1887
2019
2043
2064
1927
1749
1535
1326
1130
976
920
949
1066
1241
1459
1665
1867
2019
2074
2081
2005
1842
1637
1413
1204
1040
964
981
1056
1216
1409
1642
1833
1990
2097
2109
2064
1909
1716
1482
1276
1099
981
975
1008
1151
1361
1566
1775
1939
2064
2096
2074
1957
1773
1553
1328
1142
1008
986
989
1111
1309
1514
1729
1905
2047
2102
2119
2013
1842
1630
1415
1211
1043
967
983
1072
1233
1438
1664
1862
2016
2089
2102
2030
1885
1685
1460
1264
1079
981
973
1041
1197
1391
1612
1805
1970
2079
2096
2073
1937
1744
1527
1311
1119
991
973
991
1130
1328
1527
1740
1921
2053
2096
2096
1984
1797
1601
1379
1168
1010
944
971
1087
1261
1456
1670
1858
2007
2066
2067
1995
1826
1623
1407
1188
1022
936
943
1015
1179
1370
1602
1804
1965
2070
2086
2039
1913
1712
1472
1279
1093
971
966
1009
1155
1345
1559
1776
1947
2068
2081
2081
1967
1781
1567
1339
1157
1019
1006
1002
1121
1326
1526
1749
1950
2109
2165
2183
2109
1929
1741
1520
1303
1142
1072
1083
1156
1325
1509
1729
1919
2079
2155
2163
2109
1954
1758
1519
1311
1136
1033
1019
1072
1218
1411
1619
1822
1978
2079
2095
2071
1931
1744
1519
1294
1095
959
923
967
1089
1284
1491
1705
1889
2015
2046
2067
1965
1769
1563
1334
1126
960
914
915
1018
1204
1409
1623
1817
1983
2033
2039
1981
1815
1616
1382
1178
1009
919
922
1003
1157
1365
1600
1790
1956
2054
2064
2035
1901
1689
1473
1254
1072
944
939
973
1115
1309
1519
1737
1913
2035
2063
2066
1951
1766
1555
1321
1135
976
929
949
1072
1261
1473
1684
1872
2020
2079
2083
1995
1814
1613
1387
1162
999
927
935
1010
1195
1391
1628
1831
1991
2086
2107
2045
1907
1702
1474
1266
1086
969
958
1018
1167
1359
1579
1793
1968
2085
2107
2105
1983
1789
1578
1349
1162
1013
994
1010
1135
1332
1535
1744
1936
2077
2128
2117
2007
1834
1630
1407
1194
1034
965
976
1070
1232
1438
1651
1856
2005
2082
2100
2032
1893
1715
1504
1349
1218
1190
1266
1408
1664
1943
2295
2608
2949
3279
3481
3627
3545
3328
3089
2831
2653
2535
2514
2527
2631
2815
3007
3230
3398
3409
3249
3015
2657
2259
1884
1462
1056
721
496
393
406
522
694
909
1135
1344
1468
1525
1535
1443
1328
1168
1015
896
862
906
1002
1194
1402
1645
1853
2020
2128
2130
2081
1940
1733
1505
1283
1103
988
975
1023
1167
1360
1582
1791
1973
2092
2112
2107
1983
1783
1574
1355
1159
1015
992
1016
1146
1344
1556
1773
1966
2106
2153
2160
2064
1899
1680
1456
1243
1073
1007
1023
1118
1296
1494
1734
1926
2096
2171
2184
2124
1971
1778
1552
1327
1154
1069
1060
1126
1264
1475
1697
1904
2090
2195
2219
2190
2061
1861
1651
1424
1226
1103
1086
1115
1253
1458
1670
1889
2079
2214
2253
2256
2145
1968
1744
1525
1322
1173
1108
1141
1264
1445
1653
1866
2077
2230
2291
2289
2224
2055
1863
1631
1422
1252
1168
1183
1253
1411
1632
1853
2061
2230
2325
2367
2316
2172
1971
1749
1556
1367
1269
1264
1310
1458
1671
1888
2096
2281
2406
2417
2435
2317
2117
1897
1677
1474
1329
1314
1327
1446
1634
1847
2064
2256
2416
2477
2475
2378
2207
2000
1776
1567
1383
1317
1333
1424
1584
1792
2015
2211
2375
2461
2478
2411
2243
2055
1822
1606
1424
1322
1317
1374
1527
1733
1937
2149
2324
2432
2458
2418
2285
2073
1862
1628
1429
1296
1270
1299
1415
1615
1822
2032
2218
2350
2379
2380
2262
2069
1845
1630
1402
1233
1174
1179
1282
1449
1648
1844
2045
2193
2259
2254
2161
1994
1779
1535
1313
1132
1042
1042
1101
1262
1447
1670
1863
2025
2113
2125
2077
1920
1715
1488
1261
1063
934
915
951
1095
1293
1508
1712
1895
2002
2028
2028
1905
1712
1487
1262
1056
906
871
885
1007
1210
1424
1647
1834
1979
2036
2037
1950
1776
1563
1342
1124
944
867
897
973
1152
1345
1586
1792
1954
2035
2042
1994
1841
1642
1406
1195
999
885
880
939
1088
1290
1509
1729
1905
2002
2041
2019
1899
1712
1489
1271
1072
929
899
921
1062
1261
1472
1693
1882
2027
2086
2070
1969
1790
1575
1358
1131
974
898
927
1033
1212
1413
1631
1833
1993
2065
2064
2011
1839
1641
1395
1199
1009
918
912
992
1152
1350
1600
1783
1954
2067
2071
2038
1900
1686
1473
1243
1063
927
917
956
1101
1296
1508
1729
1913
2042
2070
2082
1949
1765
1552
1322
1106
961
901
933
1053
1251
1462
1680
1877
2038
2108
2100
2017
1847
1623
1397
1180
1006
927
926
1011
1170
1386
1616
1814
1983
2077
2097
2042
1885
1691
1450
1231
1040
918
913
955
1113
1311
1534
1750
1936
2035
2084
2067
1936
1730
1520
1290
1094
944
919
930
1056
1262
1467
1683
1872
2003
2043
2054
1950
1779
1555
1322
1111
946
897
901
1004
1191
1395
1624
1835
1994
2076
2081
2017
1857
1665
1416
1204
1019
928
933
991
1157
1358
1601
1801
1970
2079
2101
2068
1919
1718
1500
1278
1090
962
951
987
1136
1355
1582
1805
2000
2157
2194
2209
2098
1913
1692
1471
1264
1099
1040
1050
1153
1335
1531
1747
1939
2096
2155
2151
2085
1899
1690
1459
1239
1071
978
988
1067
1224
1429
1661
1856
2018
2106
2116
2044
1899
1687
1450
1235
1054
930
916
962
1108
1308
1520
1733
1914
2032
2038
2032
1914
1712
1488
1271
1058
912
897
887
1017
1213
1425
1654
1851
1995
2046
2057
1968
1781
1574
1348
1130
960
892
912
999
1185
1381
1621
1821
1980
2070
2074
2017
1863
1659
1417
1195
1006
894
895
949
1115
1317
1535
1754
1927
2038
2064
2045
1909
1711
1489
1261
1070
928
889
929
1082
1267
1485
1712
1888
2032
2075
2064
1957
1762
1535
1314
1104
953
905
908
1014
1203
1419
1634
1843
2006
2071
2075
2000
1835
1634
1402
1185
1003
912
915
1002
1166
1367
1610
1808
1983
2082
2099
2062
1917
1703
1473
1243
1059
944
923
977
1130
1318
1552
1769
1941
2070
2096
2093
1972
1763
1554
1322
1107
960
919
925
1044
1246
1453
1671
1871
2013
2096
2110
2023
1874
1706
1534
1360
1271
1275
1375
1535
1820
2127
2463
2821
3230
3547
3709
3795
3655
3392
3069
2803
2593
2457
2404
2416
2511
2641
2795
2935
3027
3007
2832
2611
2288
1897
1494
1088
720
446
305
245
335
521
752
1008
1267
1486
1619
1680
1651
1535
1372
1215
1039
918
882
917
1043
1232
1443
1668
1885
2054
2117
2112
2043
1873
1657
1418
1211
1023
931
938
1001
1174
1377
1627
1819
1995
2112
2135
2096
1953
1745
1519
1301
1109
986
961
1013
1151
1371
1589
1810
1997
2119
2157
2149
2025
1834
1616
1387
1179
1023
967
1006
1133
1314
1535
1758
1961
2117
2192
2187
2098
1922
1727
1491
1271
1109
1034
1054
1130
1302
1505
1738
1949
2127
2223
2234
2170
2015
1828
1600
1378
1193
1083
1087
1145
1292
1502
1725
1936
2127
2231
2259
2247
2112
1907
1691
1456
1267
1136
1104
1131
1264
1472
1697
1908
2113
2255
2306
2313
2203
2007
1808
1593
1378
1216
1151
1178
1275
1469
1681
1902
2125
2294
2375
2375
2331
2160
1967
1732
1521
1344
1251
1253
1328
1493
1709
1952
2155
2335
2448
2470
2437
2304
2094
1876
1645
1447
1325
1311
1350
1490
1695
1899
2127
2318
2444
2481
2481
2363
2170
1940
1722
1519
1358
1303
1328
1441
1647
1852
2071
2269
2434
2496
2484
2410
2225
2019
1779
1562
1374
1296
1303
1387
1535
1749
1979
2193
2373
2466
2479
2416
2266
2054
1810
1590
1396
1279
1273
1314
1453
1648
1860
2080
2249
2358
2377
2363
2224
2018
1806
1557
1352
1200
1169
1168
1279
1458
1674
1882
2064
2197
2251
2237
2127
1931
1712
1462
1238
1068
999
1009
1088
1265
1468
1695
1889
2043
2122
2128
2057
1890
1676
1437
1209
1009
921
909
970
1118
1328
1535
1761
1926
2027
2038
2005
1874
1663
1437
1207
1011
880
865
887
1039
1232
1455
1681
1867
2014
2043
2035
1923
1738
1511
1283
1072
907
867
872
978
1178
1393
1616
1829
1984
2055
2055
1982
1808
1590
1360
1134
959
875
879
957
1126
1331
1575
1783
1958
2055
2073
2017
1887
1671
1422
1215
1022
910
901
941
1083
1303
1519
1748
1932
2059
2069
2086
1941
1751
1521
1283
1088
926
906
898
1020
1217
1438
1662
1859
2001
2071
2074
1971
1792
1574
1332
1108
947
869
895
977
1162
1373
1611
1810
1974
2062
2071
2006
1854
1646
1397
1175
982
880
878
928
1093
1297
1520
1746
1914
2036
2063
2034
1898
1690
1463
1248
1050
917
885
925
1056
1265
1488
1711
1909
2038
2094
2094
1971
1793
1563
1343
1116
955
895
910
1019
1198
1413
1634
1849
2007
2073
2079
2000
1827
1627
1386
1163
976
891
891
967
1136
1339
1586
1777
1951
2059
2069
2029
1879
1677
1429
1215
1014
897
880
926
1059
1281
1497
1724
1904
2037
2066
2064
1936
1739
1515
1289
1077
914
867
901
1007
1202
1435
1651
1862
2004
2077
2084
1991
1825
1616
1394
1168
994
912
937
1021
1206
1408
1648
1850
2028
2112
2119
2065
1915
1708
1479
1251
1066
960
942
1018
1168
1396
1618
1852
2032
2166
2189
2185
2054
1867
1649
1434
1232
1093
1069
1089
1220
1407
1627
1829
2016
2155
2198
2191
2081
1884
1655
1425
1204
1040
977
997
1082
1267
1477
1701
1904
2064
2132
2138
2058
1904
1690
1434
1205
1014
923
911
983
1135
1343
1591
1782
1950
2060
2072
2029
1894
1679
1452
1222
1014
902
873
912
1052
1259
1481
1711
1894
2023
2066
2067
1937
1735
1517
1274
1081
916
865
906
1019
1213
1434
1664
1867
2026
2079
2081
2000
1837
1627
1383
1152
982
895
905
977
1153
1356
1593
1799
1973
2069
2086
2032
1875
1679
1429
1229
1035
924
911
967
1121
1319
1535
1755
1935
2055
2090
2067
1936
1728
1498
1270
1074
916
911
915
1049
1251
1472
1699
1899
2037
2082
2099
2000
1825
1600
1362
1154
995
927
944
1041
1210
1425
1662
1858
2026
2112
2115
2057
1882
1680
1443
1225
1041
938
931
998
1152
1366
1590
1808
1986
2096
2113
2090
1951
1734
1513
1287
1097
960
933
962
1106
1298
1520
1741
1920
2054
2096
2083
1979
1787
1579
1351
1159
1020
995
1044
1211
1462
1745
2035
2341
2624
2831
2975
3008
2911
2752
2594
2443
2339
2320
2379
2511
2718
3015
3368
3714
3782
3760
3715
3504
3094
2659
2258
1909
1552
1243
1031
878
832
883
964
1098
1213
1306
1323
1349
1270
1135
979
832
710
639
686
750
934
1179
1426
1674
1897
2054
2123
2134
2032
1861
1642
1424
1195
1020
934
951
1022
1200
1411
1652
1840
2002
2103
2105
2045
1899
1697
1447
1243
1064
963
950
1015
1184
1393
1616
1834
2007
2128
2167
2125
1990
1787
1569
1340
1141
1003
977
1018
1147
1345
1575
1790
1984
2125
2167
2176
2068
1874
1650
1433
1226
1058
1014
1019
1131
1311
1525
1756
1959
2134
2206
2209
2134
1974
1775
1535
1318
1147
1062
1063
1137
1296
1498
1747
1948
2125
2229
2244
2217
2075
1865
1648
1419
1237
1121
1104
1153
1298
1495
1726
1936
2129
2255
2302
2285
2166
1967
1770
1535
1335
1198
1150
1170
1300
1488
1717
1936
2140
2292
2353
2365
2262
2099
1875
1670
1446
1278
1211
1232
1315
1488
1705
1930
2149
2317
2416
2432
2385
2229
2031
1815
1600
1408
1311
1300
1358
1505
1718
1936
2159
2338
2469
2486
2480
2341
2147
1920
1695
1488
1353
1321
1344
1487
1679
1887
2110
2310
2463
2539
2528
2414
2226
2003
1794
1563
1410
1333
1360
1446
1634
1835
2055
2256
2431
2512
2499
2433
2256
2039
1795
1584
1390
1296
1283
1355
1507
1712
1943
2143
2318
2413
2435
2392
2250
2033
1811
1581
1365
1232
1211
1229
1360
1531
1748
1953
2128
2255
2267
2262
2139
1935
1716
1463
1255
1088
1013
1040
1153
1328
1535
1754
1936
2097
2143
2138
2053
1872
1659
1414
1198
1008
919
932
997
1168
1360
1589
1795
1952
2055
2064
1996
1857
1651
1418
1197
1007
893
878
918
1075
1286
1491
1709
1886
1998
2029
2013
1881
1691
1465
1236
1040
896
867
880
1008
1200
1413
1637
1824
1963
2005
2021
1915
1743
1515
1307
1088
917
852
862
950
1136
1344
1586
1783
1955
2033
2045
1987
1841
1632
1392
1175
987
895
893
957
1106
1310
1535
1754
1920
2019
2059
2017
1899
1685
1459
1236
1037
910
880
914
1056
1236
1459
1682
1872
2010
2062
2063
1948
1770
1556
1325
1118
951
891
917
1023
1211
1429
1653
1856
2015
2065
2076
2005
1840
1636
1398
1181
1007
916
916
1003
1168
1360
1601
1806
1975
2070
2098
2038
1890
1698
1458
1243
1051
923
911
960
1105
1313
1520
1739
1926
2047
2063
2071
1946
1755
1521
1297
1102
945
923
916
1056
1250
1468
1682
1882
2032
2096
2097
2015
1833
1626
1401
1183
998
934
943
1023
1200
1399
1638
1823
1973
2064
2052
1988
1841
1631
1402
1184
993
898
895
960
1104
1319
1535
1767
1943
2058
2083
2059
1920
1729
1514
1281
1077
939
897
928
1059
1266
1479
1710
1883
2025
2064
2078
1973
1781
1570
1338
1133
970
918
923
1034
1218
1427
1661
1866
2027
2100
2112
2046
1887
1678
1439
1227
1046
955
957
1037
1202
1407
1648
1851
2034
2141
2179
2143
2007
1808
1589
1363
1186
1069
1046
1079
1223
1421
1634
1840
2019
2146
2156
2159
2027
1835
1607
1374
1168
1023
973
990
1110
1295
1511
1730
1911
2069
2118
2112
2023
1843
1634
1393
1182
998
919
931
1008
1186
1382
1611
1805
1964
2044
2065
2007
1850
1648
1421
1216
1018
905
902
959
1101
1309
1516
1735
1905
2025
2061
2032
1901
1712
1485
1267
1067
919
891
912
1047
1243
1465
1684
1875
2010
2078
2065
1959
1776
1559
1339
1114
948
887
905
988
1179
1392
1611
1818
1990
2066
2077
2013
1851
1652
1408
1200
1006
910
914
983
1136
1346
1585
1778
1949
2060
2071
2041
1904
1711
1489
1261
1072
930
924
956
1104
1293
1509
1731
1913
2042
2075
2082
1957
1767
1558
1319
1120
960
903
928
1056
1229
1456
1678
1872
2032
2098
2096
2007
1841
1636
1407
1187
1008
923
943
1008
1194
1386
1617
1827
1998
2092
2105
2066
1904
1713
1486
1264
1077
968
960
1006
1146
1349
1573
1776
1951
2067
2095
2091
1965
1762
1557
1341
1175
1072
1093
1165
1359
1631
1936
2246
2550
2854
3047
3237
3229
3083
2864
2683
2506
2398
2377
2423
2533
2734
2982
3279
3568
3731
3697
3546
3232
2775
2378
1969
1584
1201
901
711
605
592
688
833
997
1153
1269
1328
1348
1287
1159
1013
876
754
700
746
838
1018
1256
1499
1739
1929
2086
2124
2125
2001
1810
1600
1364
1152
979
915
944
1062
1238
1454
1671
1877
2036
2112
2112
2037
1887
1671
1435
1220
1044
959
970
1051
1213
1421
1649
1850
2027
2128
2142
2106
1954
1741
1521
1306
1121
1002
1005
1045
1191
1397
1619
1837
2023
2149
2162
2164
2045
1853
1637
1407
1200
1071
1055
1056
1168
1360
1598
1811
2001
2160
2224
2214
2133
1942
1739
1505
1299
1133
1073
1085
1166
1350
1569
1801
2000
2165
2259
2271
2207
2061
1852
1623
1392
1220
1116
1104
1181
1338
1535
1771
1984
2170
2285
2320
2298
2154
1951
1747
1513
1322
1199
1162
1210
1347
1559
1772
1984
2177
2330
2369
2383
2279
2085
1872
1655
1431
1282
1240
1248
1357
1554
1759
1969
2186
2353
2429
2420
2362
2195
1997
1763
1554
1375
1293
1301
1373
1526
1740
1974
2192
2371
2480
2499
2453
2320
2110
1875
1654
1460
1339
1310
1351
1498
1703
1911
2130
2321
2449
2473
2487
2353
2158
1940
1710
1489
1344
1310
1318
1443
1634
1840
2059
2258
2417
2487
2494
2397
2196
1989
1750
1534
1360
1271
1291
1360
1535
1734
1961
2175
2336
2416
2423
2362
2194
1981
1735
1503
1311
1195
1180
1232
1377
1573
1779
1989
2167
2275
2288
2257
2114
1891
1679
1441
1231
1081
1035
1054
1182
1357
1566
1773
1954
2103
2146
2133
2023
1826
1613
1370
1143
974
911
930
1017
1190
1401
1621
1825
1990
2064
2054
1986
1823
1626
1369
1157
967
865
867
944
1099
1296
1535
1737
1914
2021
2045
2002
1872
1658
1428
1210
1005
884
870
912
1053
1264
1477
1708
1888
2018
2065
2061
1936
1741
1520
1295
1088
924
863
899
1007
1199
1424
1639
1840
1986
2062
2055
1968
1799
1584
1357
1138
959
879
894
966
1152
1357
1594
1794
1979
2069
2090
2032
1894
1680
1456
1232
1049
933
926
970
1126
1328
1535
1762
1939
2059
2082
2065
1942
1736
1515
1275
1086
932
913
930
1067
1269
1475
1712
1904
2063
2096
2112
2006
1825
1613
1379
1158
983
914
944
1036
1207
1417
1650
1854
2011
2096
2095
2039
1870
1671
1411
1200
1012
912
923
979
1145
1360
1604
1795
1978
2079
2112
2064
1927
1713
1488
1264
1066
922
897
940
1074
1286
1505
1729
1920
2064
2111
2112
1984
1793
1561
1331
1127
953
902
922
1040
1232
1436
1666
1870
2018
2091
2086
2000
1839
1616
1378
1159
979
897
898
966
1138
1339
1584
1785
1959
2055
2085
2016
1872
1661
1418
1209
1019
896
899
935
1103
1303
1520
1755
1942
2074
2090
2093
1963
1765
1535
1317
1110
960
944
954
1090
1274
1494
1727
1929
2067
2128
2139
2047
1867
1668
1445
1234
1081
1023
1045
1152
1334
1553
1789
1994
2157
2224
2227
2160
1985
1776
1528
1297
1097
989
982
1053
1207
1421
1645
1856
2039
2159
2167
2145
2005
1797
1559
1311
1111
959
935
955
1073
1275
1489
1723
1903
2032
2078
2075
1952
1757
1535
1307
1083
912
883
880
980
1168
1392
1621
1837
1991
2058
2070
1987
1822
1607
1375
1161
976
887
894
981
1152
1347
1591
1802
1973
2073
2094
2047
1904
1698
1448
1217
1023
905
885
937
1080
1298
1520
1747
1936
2072
2087
2097
1969
1771
1535
1295
1089
930
903
898
1033
1218
1441
1669
1877
2031
2101
2097
2017
1839
1614
1389
1159
985
919
943
1022
1202
1419
1657
1856
2028
2114
2129
2066
1903
1702
1456
1226
1050
926
914
982
1153
1363
1584
1811
1987
2108
2135
2117
1975
1766
1535
1315
1095
955
918
947
1099
1293
1510
1744
1936
2080
2148
2139
2028
1836
1628
1389
1169
1008
949
960
1065
1251
1467
1697
1904
2071
2141
2137
2065
1890
1663
1421
1197
1011
944
951
1066
1246
1499
1808
2094
2340
2559
2683
2753
2715
2583
2447
2297
2195
2160
2219
2329
2559
2884
3281
3751
3781
3767
3753
3799
3645
3242
2831
2455
2118
1828
1604
1452
1355
1341
1360
1394
1439
1460
1429
1367
1265
1091
896
720
561
455
464
552
715
947
1234
1535
1784
1999
2119
2147
2109
1967
1762
1524
1289
1099
975
954
1004
1152
1366
1594
1808
1994
2119
2145
2128
1994
1782
1576
1328
1130
979
955
976
1106
1319
1531
1759
1959
2115
2158
2171
2073
1878
1648
1424
1200
1037
960
990
1085
1273
1478
1713
1923
2099
2180
2186
2130
1968
1758
1502
1296
1120
1023
1023
1101
1247
1472
1721
1924
2118
2224
2250
2217
2091
1862
1642
1405
1205
1085
1057
1102
1247
1456
1679
1898
2103
2237
2279
2275
2154
1968
1745
1509
1294
1129
1072
1115
1234
1419
1649
1878
2096
2268
2339
2347
2270
2096
1888
1659
1426
1254
1172
1187
1271
1446
1658
1892
2107
2286
2384
2410
2352
2207
1989
1746
1533
1342
1232
1230
1284
1433
1648
1873
2109
2297
2439
2464
2464
2323
2128
1906
1671
1462
1313
1299
1312
1434
1636
1872
2110
2318
2470
2531
2544
2438
2240
2020
1794
1563
1392
1325
1342
1425
1614
1813
2063
2272
2448
2535
2545
2467
2305
2098
1846
1616
1425
1325
1324
1392
1535
1759
1983
2209
2388
2517
2543
2501
2356
2128
1905
1661
1456
1312
1287
1318
1450
1661
1886
2114
2303
2446
2483
2486
2368
2146
1919
1669
1452
1274
1222
1223
1326
1495
1725
1936
2145
2307
2370
2357
2279
2089
1863
1602
1365
1178
1073
1082
1136
1306
1499
1738
1952
2123
2215
2235
2179
2021
1799
1555
1317
1117
976
956
999
1151
1362
1583
1803
1984
2103
2128
2116
1982
1772
1535
1301
1086
927
897
909
1040
1232
1466
1697
1904
2062
2128
2117
2026
1831
1614
1375
1146
973
891
911
1001
1191
1399
1653
1847
2019
2111
2125
2061
1904
1693
1445
1217
1023
911
911
975
1141
1362
1589
1823
2000
2128
2141
2123
1970
1765
1535
1289
1088
934
910
941
1093
1296
1518
1751
1961
2112
2159
2155
2040
1836
1607
1374
1155
976
912
944
1050
1249
1470
1710
1914
2091
2169
2167
2096
1916
1697
1446
1227
1034
938
943
1015
1200
1406
1661
1875
2047
2170
2176
2134
1998
1779
1535
1307
1104
971
961
1005
1159
1375
1613
1840
2045
2183
2227
2224
2093
1881
1653
1409
1194
1023
966
1008
1126
1334
1563
1789
1993
2169
2229
2229
2137
1955
1727
1488
1249
1072
990
1007
1083
1271
1488
1741
1965
2138
2247
2250
2197
2029
1811
1578
1337
1136
1015
1008
1072
1232
1455
1687
1920
2110
2238
2256
2238
2103
1889
1667
1411
1200
1052
1033
1050
1194
1404
1641
1865
2085
2237
2290
2289
2183
1984
1762
1514
1289
1109
1050
1072
1181
1374
1595
1841
2071
2240
2332
2329
2270
2103
1872
1615
1393
1198
1101
1093
1168
1337
1567
1811
2038
2230
2349
2382
2352
2207
1995
1776
1529
1328
1198
1182
1225
1371
1584
1814
2029
2230
2359
2401
2384
2245
2035
1797
1561
1324
1165
1093
1131
1246
1437
1662
1891
2114
2282
2340
2329
2245
2037
1813
1566
1321
1132
1054
1049
1136
1312
1522
1775
1990
2176
2281
2291
2224
2069
1845
1574
1360
1149
1031
1008
1057
1210
1443
1673
1895
2101
2222
2256
2238
2094
1893
1648
1405
1187
1023
1016
1023
1167
1360
1613
1849
2063
2224
2278
2272
2160
1967
1725
1481
1251
1066
994
1018
1107
1311
1522
1779
1997
2176
2265
2265
2192
2032
1809
1535
1313
1123
1011
1008
1087
1246
1478
1707
1936
2128
2246
2282
2247
2096
1861
1629
1373
1168
1019
992
1034
1187
1391
1634
1865
2074
2215
2256
2251
2139
1930
1687
1439
1215
1040
991
1003
1126
